Length [mm],Keyhole depth [mm]
0.0,6.143226919758413
0.0021570319240724763,6.143226919758413
0.004314063848144953,6.119499568593615
0.0064710957722174285,6.067730802415876
0.008628127696289905,5.981449525452977
0.010785159620362382,5.88006902502157
0.012942191544434857,5.806729939603106
0.015099223468507334,5.7528041415012945
0.01725625539257981,5.7053494391717
0.019413287316652286,5.662208800690251
0.021570319240724764,5.5823986194995685
0.02372735116479724,5.537100949094047
0.025884383088869714,5.5004314063848145
0.028041415012942193,5.43572044866264
0.030198446937014668,5.347282139775669
0.032355478861087146,5.2933563416738565
0.03451251078515962,5.2782571182053495
0.036669542709232096,5.204918032786885
0.03882657463330457,5.140207075064711
0.04098360655737705,5.064710957722174
0.04314063848144953,5.043140638481449
0.045297670405522,5.00862812769629
0.04745470232959448,4.971958584987058
0.04961173425366695,4.898619499568594
0.05176876617773943,4.818809318377912
0.05392579810181191,4.728213977566868
0.056082830025884385,4.682916307161346
0.05823986194995686,4.620362381363244
0.060396893874029335,4.5297670405522
0.06255392579810182,4.512510785159621
0.06471095772217429,4.437014667817084
0.06686798964624677,4.34641932700604
0.06902502157031924,4.260138050043141
0.07118205349439172,4.184641932700604
0.07333908541846419,4.139344262295082
0.07549611734253667,4.100517687661777
0.07765314926660914,4.1134598792062125
0.07981018119068162,4.096203623813633
0.0819672131147541,4.08541846419327
0.08412424503882658,4.078947368421053
0.08628127696289906,4.078947368421053
0.08843830888697153,4.083261432269198
0.090595340811044,4.053062985332183
0.09275237273511648,4.042277825711821
0.09490940465918896,4.040120793787748
0.09706643658326143,3.988352027610009
0.0992234685073339,3.9344262295081966
0.10138050043140638,3.8589301121656603
0.10353753235547886,3.817946505608283
0.10569456427955135,3.759706643658326
0.10785159620362382,3.699309749784297
0.1100086281276963,3.6712683347713546
0.11216566005176877,3.587144089732528
0.11432269197584125,3.5159620362381365
0.11647972389991372,3.5181190681622088
0.1186367558239862,3.4749784296807595
0.12079378774805867,3.436151855047455
0.12295081967213115,3.352027610008628
0.12510785159620363,3.3002588438308886
0.1272648835202761,3.2247627264883523
0.12942191544434858,3.138481449525453
0.13157894736842105,3.0780845556514236
0.13373597929249353,3.0133735979292493
0.135893011216566,2.9637618636755825
0.13805004314063848,2.9184641932700606
0.14020707506471097,2.911993097497843
0.14236410698878343,2.8494391716997414
0.14452113891285592,2.801984469370147
0.14667817083692838,2.754529767040552
0.14883520276100087,2.715703192407248
0.15099223468507333,2.644521138912856
0.15314926660914582,2.6294219154443486
0.15530629853321828,2.5884383088869716
0.15746333045729077,2.558239861949957
0.15962036238136323,2.5172562553925797
0.16177739430543572,2.49137187230371
0.1639344262295082,2.424503882657463
0.16609145815358067,2.323123382226057
0.16824849007765316,2.2260569456427954
0.17040552200172562,2.1138912855910266
0.1725625539257981,2.03839516824849
0.17471958584987057,1.9348576358930112
0.17687661777394306,1.82916307161346
0.17903364969801552,1.6997411561691114
0.181190681622088,1.6738567730802416
0.18334771354616047,1.684641932700604
0.18550474547023296,1.6415012942191545
0.18766177739430545,1.5875754961173425
0.1898188093183779,1.58541846419327
0.1919758412424504,1.507765314926661
0.19413287316652286,1.3934426229508197
0.19628990509059535,1.3136324417601382
0.1984469370146678,1.2100949094046591
0.2006039689387403,1.177739430543572
0.20276100086281276,1.1259706643658327
0.20491803278688525,1.0289042277825713
0.2070750647109577,0.9124245038826575
0.2092320966350302,0.8088869715271786
0.2113891285591027,0.7441760138050043
0.21354616048317515,0.6665228645383952
0.21570319240724764,0.6298533218291631
0.2178602243313201,0.5910267471958585
0.2200172562553926,0.5047454702329595
0.22217428817946505,0.4831751509922347
0.22433132010353754,0.4400345125107852
0.22648835202761,0.4270923209663503
0.2286453839516825,0.42062122519413286
0.23080241587575498,0.47670405522001724
0.23295944779982744,0.47886108714408976
0.23511647972389993,0.4831751509922347
0.2372735116479724,0.4400345125107852
0.23943054357204488,0.4270923209663503
0.24158757549611734,0.4400345125107852
0.24374460742018983,0.4551337359792925
0.2459016393442623,0.4831751509922347
0.24805867126833478,0.5112165660051768
0.25021570319240727,0.4723899913718723
0.25237273511647973,0.4314063848144953
0.2545297670405522,0.4400345125107852
0.2566867989646247,0.45944779982743744
0.25884383088869717,0.44219154443485764
0.26100086281276963,0.457290767903365
0.2631578947368421,0.4659188955996549
0.2653149266609146,0.4551337359792925
0.26747195858498707,0.4465056082830026
0.26962899050905953,0.44219154443485764
0.271786022433132,0.4637618636755824
0.2739430543572045,0.4723899913718723
0.27610008628127697,0.4810181190681622
0.27825711820534943,0.46807592752372734
0.28041415012942195,0.44219154443485764
0.2825711820534944,0.45081967213114754
0.28472821397756687,0.4723899913718723
0.28688524590163933,0.42493528904227784
0.28904227782571185,0.44219154443485764
0.2911993097497843,0.4098360655737705
0.29335634167385677,0.3925798101811907
0.29551337359792923,0.36022433132010356
0.29767040552200175,0.3451251078515962
0.2998274374460742,0.36669542709232095
0.30198446937014667,0.36669542709232095
0.3041415012942192,0.3904227782571182
0.30629853321829165,0.4227782571182054
0.3084555651423641,0.4465056082830026
0.31061259706643657,0.4551337359792925
0.3127696289905091,0.47886108714408976
0.31492666091458155,0.4831751509922347
0.317083692838654,0.47886108714408976
0.31924072476272647,0.5090595340811044
0.321397756686799,0.5306298533218292
0.32355478861087145,0.4659188955996549
0.3257118205349439,0.4551337359792925
0.3278688524590164,0.46160483175150996
0.3300258843830889,0.5112165660051768
0.33218291630716135,0.5306298533218292
0.3343399482312338,0.5349439171699741
0.3364969801553063,0.5327868852459017
0.3386540120793788,0.5155306298533219
0.34081104400345125,0.5371009490940466
0.3429680759275237,0.48748921484037966
0.3451251078515962,0.4486626402070751
0.3472821397756687,0.4551337359792925
0.34943917169974115,0.4443485763589301
0.35159620362381366,0.45297670405522
0.3537532355478861,0.4486626402070751
0.3559102674719586,0.4810181190681622
0.35806729939603105,0.4896462467644521
0.36022433132010356,0.5090595340811044
0.362381363244176,0.5112165660051768
0.3645383951682485,0.5220017256255393
0.36669542709232095,0.5694564279551337
0.36885245901639346,0.6276962899050906
0.3710094909404659,0.634167385677308
0.3731665228645384,0.6018119068162209
0.3753235547886109,0.5522001725625539
0.37748058671268336,0.5543572044866264
0.3796376186367558,0.5522001725625539
0.3817946505608283,0.5672993960310613
0.3839516824849008,0.5823986194995686
0.38610871440897326,0.5845556514236411
0.3882657463330457,0.5608283002588439
0.3904227782571182,0.5349439171699741
0.3925798101811907,0.5155306298533219
0.39473684210526316,0.498274374460742
0.3968938740293356,0.46807592752372734
0.39905090595340814,0.4831751509922347
0.4012079378774806,0.4357204486626402
0.40336496980155306,0.42924935289042276
0.4055220017256255,0.42493528904227784
0.40767903364969804,0.4141501294219154
0.4098360655737705,0.4314063848144953
0.41199309749784296,0.42493528904227784
0.4141501294219154,0.4378774805867127
0.41630716134598794,0.46807592752372734
0.4184641932700604,0.4270923209663503
0.42062122519413286,0.4055220017256255
0.4227782571182054,0.3796376186367558
0.42493528904227784,0.3753235547886109
0.4270923209663503,0.3904227782571182
0.42924935289042276,0.3817946505608283
0.4314063848144953,0.39905090595340814
0.43356341673856774,0.41630716134598794
0.4357204486626402,0.40767903364969804
0.4378774805867127,0.4055220017256255
0.4400345125107852,0.4098360655737705
0.44219154443485764,0.4400345125107852
0.4443485763589301,0.42062122519413286
0.4465056082830026,0.4314063848144953
0.4486626402070751,0.4012079378774806
0.45081967213114754,0.3753235547886109
0.45297670405522,0.3817946505608283
0.4551337359792925,0.40336496980155306
0.457290767903365,0.42062122519413286
0.45944779982743744,0.4486626402070751
0.46160483175150996,0.4400345125107852
0.4637618636755824,0.4314063848144953
0.4659188955996549,0.40767903364969804
0.46807592752372734,0.3753235547886109
0.47023295944779986,0.3839516824849008
0.4723899913718723,0.3968938740293356
0.4745470232959448,0.41199309749784296
0.47670405522001724,0.4098360655737705
0.47886108714408976,0.39473684210526316
0.4810181190681622,0.36669542709232095
0.4831751509922347,0.39905090595340814
0.4853321829163072,0.42062122519413286
0.48748921484037966,0.4314063848144953
0.4896462467644521,0.4400345125107852
0.4918032786885246,0.42062122519413286
0.4939603106125971,0.4055220017256255
0.49611734253666956,0.39905090595340814
0.498274374460742,0.35806729939603105
0.5004314063848145,0.3753235547886109
0.502588438308887,0.36022433132010356
0.5047454702329595,0.3537532355478861
0.5069025021570319,0.35159620362381366
0.5090595340811044,0.36669542709232095
0.5112165660051768,0.3904227782571182
0.5133735979292494,0.4270923209663503
0.5155306298533219,0.4378774805867127
0.5176876617773943,0.4465056082830026
0.5198446937014668,0.42062122519413286
0.5220017256255393,0.42924935289042276
0.5241587575496117,0.4486626402070751
0.5263157894736842,0.45081967213114754
0.5284728213977566,0.4378774805867127
0.5306298533218292,0.457290767903365
0.5327868852459017,0.44219154443485764
0.5349439171699741,0.4465056082830026
0.5371009490940466,0.4184641932700604
0.5392579810181191,0.42062122519413286
0.5414150129421915,0.4227782571182054
0.543572044866264,0.4357204486626402
0.5457290767903366,0.457290767903365
0.547886108714409,0.4723899913718723
0.5500431406384815,0.4357204486626402
0.5522001725625539,0.4141501294219154
0.5543572044866264,0.38610871440897326
0.5565142364106989,0.40336496980155306
0.5586712683347713,0.42924935289042276
0.5608283002588439,0.4443485763589301
0.5629853321829164,0.4659188955996549
0.5651423641069888,0.46807592752372734
0.5672993960310613,0.45081967213114754
0.5694564279551337,0.4551337359792925
0.5716134598792062,0.45297670405522
0.5737704918032787,0.47023295944779986
0.5759275237273512,0.4551337359792925
0.5780845556514237,0.4314063848144953
0.5802415875754962,0.4465056082830026
0.5823986194995686,0.4551337359792925
0.5845556514236411,0.45081967213114754
0.5867126833477135,0.43356341673856774
0.588869715271786,0.4184641932700604
0.5910267471958585,0.39905090595340814
0.593183779119931,0.42062122519413286
0.5953408110440035,0.40336496980155306
0.597497842968076,0.4184641932700604
0.5996548748921484,0.4098360655737705
0.6018119068162209,0.40767903364969804
0.6039689387402933,0.4184641932700604
0.6061259706643658,0.45944779982743744
0.6082830025884384,0.4486626402070751
0.6104400345125108,0.4443485763589301
0.6125970664365833,0.4098360655737705
0.6147540983606558,0.4141501294219154
0.6169111302847282,0.4098360655737705
0.6190681622088007,0.39473684210526316
0.6212251941328731,0.3731665228645384
0.6233822260569457,0.37748058671268336
0.6255392579810182,0.3904227782571182
0.6276962899050906,0.3925798101811907
0.6298533218291631,0.3645383951682485
0.6320103537532356,0.3537532355478861
0.634167385677308,0.3645383951682485
0.6363244176013805,0.36022433132010356
0.6384814495254529,0.35806729939603105
0.6406384814495255,0.36885245901639346
0.642795513373598,0.39473684210526316
0.6449525452976704,0.4098360655737705
0.6471095772217429,0.4637618636755824
0.6492666091458154,0.4918032786885246
0.6514236410698878,0.5004314063848145
0.6535806729939603,0.498274374460742
0.6557377049180328,0.5306298533218292
0.6578947368421053,0.5457290767903366
0.6600517687661778,0.5457290767903366
0.6622088006902502,0.5565142364106989
0.6643658326143227,0.4831751509922347
0.6665228645383952,0.4659188955996549
0.6686798964624676,0.4853321829163072
0.6708369283865402,0.4853321829163072
0.6729939603106126,0.4465056082830026
0.6751509922346851,0.42062122519413286
0.6773080241587576,0.3925798101811907
0.67946505608283,0.40336496980155306
0.6816220880069025,0.40767903364969804
0.683779119930975,0.43356341673856774
0.6859361518550474,0.4314063848144953
0.68809318377912,0.42924935289042276
0.6902502157031924,0.45944779982743744
0.6924072476272649,0.47886108714408976
0.6945642795513374,0.47886108714408976
0.6967213114754098,0.5047454702329595
0.6988783433994823,0.498274374460742
0.7010353753235548,0.5327868852459017
0.7031924072476273,0.5306298533218292
0.7053494391716998,0.5414150129421915
0.7075064710957722,0.5241587575496117
0.7096635030198447,0.5543572044866264
0.7118205349439172,0.5802415875754962
0.7139775668679896,0.5672993960310613
0.7161345987920621,0.5349439171699741
0.7182916307161347,0.5133735979292494
0.7204486626402071,0.4637618636755824
0.7226056945642796,0.4551337359792925
0.724762726488352,0.45297670405522
0.7269197584124245,0.4357204486626402
0.729076790336497,0.4810181190681622
0.7312338222605694,0.5176876617773943
0.7333908541846419,0.5306298533218292
0.7355478861087145,0.5133735979292494
0.7377049180327869,0.49611734253666956
0.7398619499568594,0.4659188955996549
0.7420189818809318,0.4400345125107852
0.7441760138050043,0.4443485763589301
0.7463330457290768,0.44219154443485764
0.7484900776531492,0.45297670405522
0.7506471095772218,0.42493528904227784
0.7528041415012943,0.45081967213114754
0.7549611734253667,0.47886108714408976
0.7571182053494392,0.4314063848144953
0.7592752372735116,0.4314063848144953
0.7614322691975841,0.3968938740293356
0.7635893011216566,0.362381363244176
0.7657463330457291,0.4012079378774806
0.7679033649698016,0.41199309749784296
0.7700603968938741,0.4270923209663503
0.7722174288179465,0.4184641932700604
0.774374460742019,0.3796376186367558
0.7765314926660914,0.3645383951682485
0.7786885245901639,0.362381363244176
0.7808455565142364,0.3710094909404659
0.7830025884383089,0.4184641932700604
0.7851596203623814,0.4314063848144953
0.7873166522864539,0.46807592752372734
0.7894736842105263,0.4357204486626402
0.7916307161345988,0.4055220017256255
0.7937877480586712,0.4465056082830026
0.7959447799827437,0.46807592752372734
0.7981018119068163,0.48748921484037966
0.8002588438308887,0.4357204486626402
0.8024158757549612,0.46807592752372734
0.8045729076790337,0.4831751509922347
0.8067299396031061,0.4853321829163072
0.8088869715271786,0.4939603106125971
0.811044003451251,0.5090595340811044
0.8132010353753236,0.48748921484037966
0.8153580672993961,0.5306298533218292
0.8175150992234685,0.5759275237273512
0.819672131147541,0.5910267471958585
0.8218291630716135,0.6104400345125108
0.8239861949956859,0.6384814495254529
0.8261432269197584,0.6384814495254529
0.8283002588438308,0.6212251941328731
0.8304572907679034,0.6190681622088007
0.8326143226919759,0.5802415875754962
0.8347713546160483,0.6082830025884384
0.8369283865401208,0.5500431406384815
0.8390854184641933,0.5543572044866264
0.8412424503882657,0.5220017256255393
0.8433994823123382,0.5284728213977566
0.8455565142364108,0.4745470232959448
0.8477135461604832,0.46807592752372734
0.8498705780845557,0.4357204486626402
0.8520276100086281,0.4098360655737705
0.8541846419327006,0.4465056082830026
0.8563416738567731,0.47023295944779986
0.8584987057808455,0.4939603106125971
0.8606557377049181,0.47023295944779986
0.8628127696289906,0.46160483175150996
0.864969801553063,0.4443485763589301
0.8671268334771355,0.4378774805867127
0.869283865401208,0.4227782571182054
0.8714408973252804,0.4141501294219154
0.8735979292493529,0.46807592752372734
0.8757549611734254,0.46807592752372734
0.8779119930974979,0.4810181190681622
0.8800690250215704,0.4896462467644521
0.8822260569456428,0.4637618636755824
0.8843830888697153,0.4465056082830026
0.8865401207937877,0.45081967213114754
0.8886971527178602,0.498274374460742
0.8908541846419327,0.4853321829163072
0.8930112165660052,0.49611734253666956
0.8951682484900777,0.44219154443485764
0.8973252804141502,0.4486626402070751
0.8994823123382226,0.46160483175150996
0.9016393442622951,0.46807592752372734
0.9037963761863675,0.457290767903365
0.90595340811044,0.4055220017256255
0.9081104400345126,0.3817946505608283
0.910267471958585,0.3904227782571182
0.9124245038826575,0.35159620362381366
0.91458153580673,0.3257118205349439
0.9167385677308024,0.3364969801553063
0.9188955996548749,0.3257118205349439
0.9210526315789473,0.3364969801553063
0.9232096635030199,0.3364969801553063
0.9253666954270924,0.3472821397756687
0.9275237273511648,0.3343399482312338
0.9296807592752373,0.362381363244176
0.9318377911993098,0.3472821397756687
0.9339948231233822,0.3451251078515962
0.9361518550474547,0.3429680759275237
0.9383088869715271,0.3386540120793788
0.9404659188955997,0.3084555651423641
0.9426229508196722,0.31492666091458155
0.9447799827437446,0.35159620362381366
0.9469370146678171,0.40336496980155306
0.9490940465918896,0.41630716134598794
0.951251078515962,0.4853321829163072
0.9534081104400345,0.4810181190681622
0.9555651423641071,0.48748921484037966
0.9577221742881795,0.4637618636755824
0.959879206212252,0.46160483175150996
0.9620362381363244,0.457290767903365
0.9641932700603969,0.4098360655737705
0.9663503019844694,0.3839516824849008
0.9685073339085418,0.4012079378774806
0.9706643658326144,0.3925798101811907
0.9728213977566869,0.3731665228645384
0.9749784296807593,0.36022433132010356
0.9771354616048318,0.36022433132010356
0.9792924935289042,0.3839516824849008
0.9814495254529767,0.3839516824849008
0.9836065573770492,0.42062122519413286
0.9857635893011216,0.40767903364969804
0.9879206212251942,0.40336496980155306
0.9900776531492667,0.4357204486626402
0.9922346850733391,0.4659188955996549
0.9943917169974116,0.45944779982743744
0.996548748921484,0.42493528904227784
0.9987057808455565,0.44219154443485764
1.000862812769629,0.42924935289042276
1.0030198446937015,0.4357204486626402
1.005176876617774,0.4378774805867127
1.0073339085418465,0.45297670405522
1.009490940465919,0.4465056082830026
1.0116479723899914,0.43356341673856774
1.0138050043140638,0.45081967213114754
1.0159620362381363,0.47023295944779986
1.0181190681622088,0.4939603106125971
1.0202761000862812,0.457290767903365
1.0224331320103537,0.4400345125107852
1.0245901639344261,0.4141501294219154
1.0267471958584988,0.39473684210526316
1.0289042277825713,0.4098360655737705
1.0310612597066438,0.4357204486626402
1.0332182916307162,0.46160483175150996
1.0353753235547887,0.45297670405522
1.0375323554788611,0.4270923209663503
1.0396893874029336,0.4357204486626402
1.041846419327006,0.4184641932700604
1.0440034512510785,0.4357204486626402
1.046160483175151,0.4443485763589301
1.0483175150992234,0.4357204486626402
1.050474547023296,0.4637618636755824
1.0526315789473684,0.46807592752372734
1.0547886108714408,0.42062122519413286
1.0569456427955133,0.42924935289042276
1.059102674719586,0.4055220017256255
1.0612597066436584,0.3796376186367558
1.063416738567731,0.35159620362381366
1.0655737704918034,0.3451251078515962
1.0677308024158758,0.3839516824849008
1.0698878343399483,0.4012079378774806
1.0720448662640207,0.4314063848144953
1.0742018981880932,0.4465056082830026
1.0763589301121657,0.46807592752372734
1.0785159620362381,0.46807592752372734
1.0806729939603106,0.4723899913718723
1.082830025884383,0.42924935289042276
1.0849870578084555,0.42924935289042276
1.087144089732528,0.4098360655737705
1.0893011216566006,0.3796376186367558
1.091458153580673,0.362381363244176
1.0936151855047456,0.36669542709232095
1.095772217428818,0.3731665228645384
1.0979292493528905,0.36669542709232095
1.100086281276963,0.36885245901639346
1.1022433132010354,0.38610871440897326
1.1044003451251079,0.41199309749784296
1.1065573770491803,0.4141501294219154
1.1087144089732528,0.4184641932700604
1.1108714408973253,0.4227782571182054
1.1130284728213977,0.4378774805867127
1.1151855047454702,0.46160483175150996
1.1173425366695426,0.4831751509922347
1.119499568593615,0.5004314063848145
1.1216566005176878,0.5263157894736842
1.1238136324417602,0.5414150129421915
