Length [mm],Keyhole depth [mm]
0.0,5.584555651423641
0.0021570319240724763,5.612597066436583
0.004314063848144953,5.571613459879206
0.0064710957722174285,5.547886108714409
0.008628127696289905,5.4637618636755825
0.010785159620362382,5.334339948231234
0.012942191544434857,5.245901639344263
0.015099223468507334,5.079810181190681
0.01725625539257981,4.911561691113029
0.019413287316652286,4.732528041415013
0.021570319240724764,4.590163934426229
0.02372735116479724,4.495254529767041
0.025884383088869714,4.309749784296808
0.028041415012942193,4.139344262295082
0.030198446937014668,3.9322691975841244
0.032355478861087146,3.587144089732528
0.03451251078515962,3.2894736842105265
0.036669542709232096,3.056514236410699
0.03882657463330457,2.871009490940466
0.04098360655737705,2.758843830888697
0.04314063848144953,2.6056945642795513
0.045297670405522,2.562553925798102
0.04745470232959448,2.4805867126833476
0.04961173425366695,2.504314063848145
0.05176876617773943,2.418032786885246
0.05392579810181191,2.323123382226057
0.056082830025884385,2.2605694564279553
0.05823986194995686,2.2562553925798103
0.060396893874029335,2.1786022433132013
0.06255392579810182,2.118205349439172
0.06471095772217429,2.118205349439172
0.06686798964624677,2.146246764452114
0.06902502157031924,2.191544434857636
0.07118205349439172,2.1937014667817083
0.07333908541846419,2.223899913718723
0.07549611734253667,2.2088006902502157
0.07765314926660914,2.2799827437446076
0.07981018119068162,2.2584124245038826
0.0819672131147541,2.3274374460742018
0.08412424503882658,2.392148403796376
0.08628127696289906,2.387834339948231
0.08843830888697153,2.2972389991371873
0.090595340811044,2.195858498705781
0.09275237273511648,2.0729076790336496
0.09490940465918896,2.1397756686798965
0.09706643658326143,2.150560828300259
0.0992234685073339,2.198015530629853
0.10138050043140638,2.1160483175150993
0.10353753235547886,2.1031061259706645
0.10569456427955135,2.0125107851596202
0.10785159620362382,1.9801553062985333
0.1100086281276963,1.9046591889559965
0.11216566005176877,1.8766177739430543
0.11432269197584125,1.82916307161346
0.11647972389991372,1.7364106988783434
0.1186367558239862,1.6824849007765315
0.12079378774805867,1.729939603106126
0.12295081967213115,1.7083692838654012
0.12510785159620363,1.7126833477135461
0.1272648835202761,1.6997411561691114
0.12942191544434858,1.6285591026747197
0.13157894736842105,1.6307161345987922
0.13373597929249353,1.5746333045729077
0.135893011216566,1.5465918895599655
0.13805004314063848,1.4689387402933565
0.14020707506471097,1.5638481449525454
0.14236410698878343,1.6716997411561692
0.14452113891285592,1.693270060396894
0.14667817083692838,1.6716997411561692
0.14883520276100087,1.6954270923209664
0.15099223468507333,1.8485763589301123
0.15314926660914582,1.9327006039689387
0.15530629853321828,1.9628990509059534
0.15746333045729077,1.870146678170837
0.15962036238136323,1.7622950819672132
0.16177739430543572,1.6824849007765315
0.1639344262295082,1.5962036238136326
0.16609145815358067,1.5616911130284727
0.16824849007765316,1.490509059534081
0.17040552200172562,1.449525452976704
0.1725625539257981,1.458153580672994
0.17471958584987057,1.4365832614322693
0.17687661777394306,1.4344262295081966
0.17903364969801552,1.4818809318377912
0.181190681622088,1.458153580672994
0.18334771354616047,1.5401207937877481
0.18550474547023296,1.4991371872303711
0.18766177739430545,1.5681622088006903
0.1898188093183779,1.6264020707506472
0.1919758412424504,1.5918895599654874
0.19413287316652286,1.7256255392579811
0.19628990509059535,1.7795513373597929
0.1984469370146678,1.8097497842968076
0.2006039689387403,1.6954270923209664
0.20276100086281276,1.639344262295082
0.20491803278688525,1.598360655737705
0.2070750647109577,1.5422778257118206
0.2092320966350302,1.5099223468507335
0.2113891285591027,1.4667817083692838
0.21354616048317515,1.5509059534081104
0.21570319240724764,1.5358067299396032
0.2178602243313201,1.490509059534081
0.2200172562553926,1.4214840379637619
0.22217428817946505,1.3567730802415876
0.22433132010353754,1.3352027610008628
0.22648835202761,1.2597066436583262
0.2286453839516825,1.1389128559102675
0.23080241587575498,1.0375323554788611
0.23295944779982744,0.9987057808455565
0.23511647972389993,0.9383088869715271
0.2372735116479724,0.9792924935289042
0.23943054357204488,0.9814495254529767
0.24158757549611734,0.9900776531492667
0.24374460742018983,1.0073339085418465
0.2459016393442623,1.050474547023296
0.24805867126833478,0.9728213977566869
0.25021570319240727,1.087144089732528
0.25237273511647973,1.2014667817083693
0.2545297670405522,1.3308886971527178
0.2566867989646247,1.3438308886971528
0.25884383088869717,1.2597066436583262
0.26100086281276963,1.1604831751509923
0.2631578947368421,1.0806729939603106
0.2653149266609146,1.0698878343399483
0.26747195858498707,1.0806729939603106
0.26962899050905953,1.0742018981880932
0.271786022433132,1.0785159620362381
0.2739430543572045,1.050474547023296
0.27610008628127697,1.0677308024158758
0.27825711820534943,1.1173425366695426
0.28041415012942195,1.1130284728213977
0.2825711820534944,1.0936151855047456
0.28472821397756687,1.1238136324417602
0.28688524590163933,1.1281276962899052
0.28904227782571185,1.1044003451251079
0.2911993097497843,1.0785159620362381
0.29335634167385677,1.0353753235547887
0.29551337359792923,1.0310612597066438
0.29767040552200175,1.0742018981880932
0.2998274374460742,1.1022433132010354
0.30198446937014667,1.1647972389991372
0.3041415012942192,1.1798964624676445
0.30629853321829165,1.194995685936152
0.3084555651423641,1.1798964624676445
0.31061259706643657,1.2014667817083693
0.3127696289905091,1.194995685936152
0.31492666091458155,1.1238136324417602
0.317083692838654,1.1518550474547025
0.31924072476272647,1.1971527178602244
0.321397756686799,1.1604831751509923
0.32355478861087145,1.0849870578084555
0.3257118205349439,1.0936151855047456
0.3278688524590164,1.063416738567731
0.3300258843830889,1.050474547023296
0.33218291630716135,1.009490940465919
0.3343399482312338,0.9555651423641071
0.3364969801553063,0.9081104400345126
0.3386540120793788,0.9404659188955997
0.34081104400345125,1.0224331320103537
0.3429680759275237,1.000862812769629
0.3451251078515962,1.0483175150992234
0.3472821397756687,1.0936151855047456
0.34943917169974115,1.1626402070750648
0.35159620362381366,1.1798964624676445
0.3537532355478861,1.1798964624676445
0.3559102674719586,1.1842105263157896
0.35806729939603105,1.2402933563416738
0.36022433132010356,1.2036238136324418
0.362381363244176,1.1561691113028474
0.3645383951682485,1.119499568593615
0.36669542709232095,1.1302847282139776
0.36885245901639346,1.100086281276963
0.3710094909404659,1.0893011216566006
0.3731665228645384,1.1173425366695426
0.3753235547886109,1.1065573770491803
0.37748058671268336,1.1583261432269198
0.3796376186367558,1.1173425366695426
0.3817946505608283,1.177739430543572
0.3839516824849008,1.2014667817083693
0.38610871440897326,1.1259706643658327
0.3882657463330457,1.0849870578084555
0.3904227782571182,1.0763589301121657
0.3925798101811907,1.091458153580673
0.39473684210526316,1.1259706643658327
0.3968938740293356,1.095772217428818
0.39905090595340814,1.0332182916307162
0.4012079378774806,0.9490940465918896
0.40336496980155306,0.9879206212251942
0.4055220017256255,1.046160483175151
0.40767903364969804,1.0310612597066438
0.4098360655737705,1.0612597066436584
0.41199309749784296,1.0785159620362381
0.4141501294219154,1.0806729939603106
0.41630716134598794,1.0612597066436584
0.4184641932700604,1.059102674719586
0.42062122519413286,1.082830025884383
0.4227782571182054,1.100086281276963
0.42493528904227784,1.1281276962899052
0.4270923209663503,1.1971527178602244
0.42924935289042276,1.1971527178602244
0.4314063848144953,1.1755823986194995
0.43356341673856774,1.1216566005176878
0.4357204486626402,1.0893011216566006
0.4378774805867127,1.0720448662640207
0.4400345125107852,1.009490940465919
0.44219154443485764,0.9706643658326144
0.4443485763589301,1.0742018981880932
0.4465056082830026,1.1022433132010354
0.4486626402070751,1.1583261432269198
0.45081967213114754,1.1087144089732528
0.45297670405522,1.0763589301121657
0.4551337359792925,0.9987057808455565
0.457290767903365,0.9426229508196722
0.45944779982743744,0.91458153580673
0.46160483175150996,0.8822260569456428
0.4637618636755824,0.8908541846419327
0.4659188955996549,0.8520276100086281
0.46807592752372734,0.9339948231233822
0.47023295944779986,0.9879206212251942
0.4723899913718723,1.100086281276963
0.4745470232959448,1.1928386540120794
0.47670405522001724,1.177739430543572
0.47886108714408976,1.1561691113028474
0.4810181190681622,1.1130284728213977
0.4831751509922347,1.0332182916307162
0.4853321829163072,1.005176876617774
0.48748921484037966,0.9469370146678171
0.4896462467644521,0.9210526315789473
0.4918032786885246,0.9728213977566869
0.4939603106125971,0.9857635893011216
0.49611734253666956,0.9663503019844694
0.498274374460742,0.9426229508196722
0.5004314063848145,0.8930112165660052
0.502588438308887,0.8843830888697153
0.5047454702329595,0.8822260569456428
0.5069025021570319,0.8973252804141502
0.5090595340811044,0.8735979292493529
0.5112165660051768,0.864969801553063
0.5133735979292494,0.8865401207937877
0.5155306298533219,0.8563416738567731
0.5176876617773943,0.9124245038826575
0.5198446937014668,0.9383088869715271
0.5220017256255393,0.9922346850733391
0.5241587575496117,1.0785159620362381
0.5263157894736842,1.119499568593615
0.5284728213977566,1.1173425366695426
0.5306298533218292,1.0698878343399483
0.5327868852459017,1.059102674719586
0.5349439171699741,0.9900776531492667
0.5371009490940466,1.0073339085418465
0.5392579810181191,0.9943917169974116
0.5414150129421915,1.0116479723899914
0.543572044866264,1.082830025884383
0.5457290767903366,1.2036238136324418
0.547886108714409,1.1885245901639345
0.5500431406384815,1.2079378774805867
0.5522001725625539,1.1842105263157896
0.5543572044866264,1.2057808455565142
0.5565142364106989,1.2230371009490941
0.5586712683347713,1.2079378774805867
0.5608283002588439,1.1842105263157896
0.5629853321829164,1.1108714408973253
0.5651423641069888,1.1302847282139776
0.5672993960310613,1.1669542709232097
0.5694564279551337,1.1518550474547025
0.5716134598792062,1.1712683347713546
0.5737704918032787,1.186367558239862
0.5759275237273512,1.2510785159620363
0.5780845556514237,1.2553925798101813
0.5802415875754962,1.272648835202761
0.5823986194995686,1.285591026747196
0.5845556514236411,1.2769628990509059
0.5867126833477135,1.3330457290767903
0.588869715271786,1.3438308886971528
0.5910267471958585,1.309318377911993
0.593183779119931,1.2704918032786885
0.5953408110440035,1.272648835202761
0.597497842968076,1.2230371009490941
0.5996548748921484,1.214408973252804
0.6018119068162209,1.1453839516824849
0.6039689387402933,1.1065573770491803
0.6061259706643658,1.0483175150992234
0.6082830025884384,0.9987057808455565
0.6104400345125108,1.0073339085418465
0.6125970664365833,1.0353753235547887
0.6147540983606558,1.0677308024158758
0.6169111302847282,1.136755823986195
0.6190681622088007,1.1389128559102675
0.6212251941328731,1.2187230371009492
0.6233822260569457,1.214408973252804
0.6255392579810182,1.2338222605694564
0.6276962899050906,1.182053494391717
0.6298533218291631,1.190681622088007
0.6320103537532356,1.2230371009490941
0.634167385677308,1.2575496117342537
0.6363244176013805,1.3287316652286454
0.6384814495254529,1.3244176013805005
0.6406384814495255,1.2704918032786885
0.642795513373598,1.3416738567730804
0.6449525452976704,1.412855910267472
0.6471095772217429,1.4193270060396894
0.6492666091458154,1.4301121656600517
0.6514236410698878,1.4150129421915445
0.6535806729939603,1.4150129421915445
0.6557377049180328,1.412855910267472
0.6578947368421053,1.4020707506471095
0.6600517687661778,1.3352027610008628
0.6622088006902502,1.2791199309749786
0.6643658326143227,1.2100949094046591
0.6665228645383952,1.1604831751509923
0.6686798964624676,1.2057808455565142
0.6708369283865402,1.2575496117342537
0.6729939603106126,1.2618636755823986
0.6751509922346851,1.227351164797239
0.6773080241587576,1.186367558239862
0.67946505608283,1.182053494391717
0.6816220880069025,1.1712683347713546
0.683779119930975,1.2251941328731666
0.6859361518550474,1.177739430543572
0.68809318377912,1.1518550474547025
0.6902502157031924,1.136755823986195
0.6924072476272649,1.182053494391717
0.6945642795513374,1.2769628990509059
0.6967213114754098,1.3718723037100948
0.6988783433994823,1.458153580672994
0.7010353753235548,1.4861949956859362
0.7031924072476273,1.4969801553062985
0.7053494391716998,1.4559965487489215
0.7075064710957722,1.4193270060396894
0.7096635030198447,1.3503019844693702
0.7118205349439172,1.3416738567730804
0.7139775668679896,1.2597066436583262
0.7161345987920621,1.2295081967213115
0.7182916307161347,1.14106988783434
0.7204486626402071,1.095772217428818
0.7226056945642796,1.0720448662640207
0.724762726488352,1.0785159620362381
0.7269197584124245,1.0849870578084555
0.729076790336497,1.0332182916307162
0.7312338222605694,1.0763589301121657
0.7333908541846419,1.119499568593615
0.7355478861087145,1.2014667817083693
0.7377049180327869,1.2187230371009492
0.7398619499568594,1.2295081967213115
0.7420189818809318,1.2381363244176014
0.7441760138050043,1.2446074201898187
0.7463330457290768,1.235979292493529
0.7484900776531492,1.2942191544434858
0.7506471095772218,1.272648835202761
0.7528041415012943,1.3244176013805005
0.7549611734253667,1.3718723037100948
0.7571182053494392,1.3006902502157032
0.7592752372735116,1.3416738567730804
0.7614322691975841,1.2424503882657463
0.7635893011216566,1.2036238136324418
0.7657463330457291,1.2834339948231235
0.7679033649698016,1.3136324417601382
0.7700603968938741,1.3330457290767903
0.7722174288179465,1.2942191544434858
0.774374460742019,1.2187230371009492
0.7765314926660914,1.154012079378775
0.7786885245901639,1.0677308024158758
0.7808455565142364,1.0138050043140638
0.7830025884383089,0.9706643658326144
0.7851596203623814,0.90595340811044
0.7873166522864539,0.9620362381363244
0.7894736842105263,0.9900776531492667
0.7916307161345988,0.9922346850733391
0.7937877480586712,0.9987057808455565
0.7959447799827437,0.9900776531492667
0.7981018119068163,1.0245901639344261
0.8002588438308887,0.9318377911993098
0.8024158757549612,0.9728213977566869
0.8045729076790337,1.0159620362381363
0.8067299396031061,1.046160483175151
0.8088869715271786,1.0742018981880932
0.811044003451251,1.0742018981880932
0.8132010353753236,1.1044003451251079
0.8153580672993961,1.0893011216566006
0.8175150992234685,1.091458153580673
0.819672131147541,1.1065573770491803
0.8218291630716135,1.0785159620362381
0.8239861949956859,1.0785159620362381
0.8261432269197584,1.0332182916307162
0.8283002588438308,1.0289042277825713
0.8304572907679034,1.050474547023296
0.8326143226919759,1.0936151855047456
0.8347713546160483,1.1302847282139776
0.8369283865401208,1.1561691113028474
0.8390854184641933,1.182053494391717
0.8412424503882657,1.1583261432269198
0.8433994823123382,1.2553925798101813
0.8455565142364108,1.2402933563416738
0.8477135461604832,1.2553925798101813
0.8498705780845557,1.2510785159620363
0.8520276100086281,1.2230371009490941
0.8541846419327006,1.186367558239862
0.8563416738567731,1.1712683347713546
0.8584987057808455,1.1259706643658327
0.8606557377049181,1.0936151855047456
0.8628127696289906,1.1302847282139776
0.864969801553063,1.1259706643658327
0.8671268334771355,1.1259706643658327
0.869283865401208,1.1044003451251079
0.8714408973252804,1.082830025884383
0.8735979292493529,1.0849870578084555
0.8757549611734254,1.1065573770491803
0.8779119930974979,1.1259706643658327
0.8800690250215704,1.1604831751509923
0.8822260569456428,1.1798964624676445
0.8843830888697153,1.1885245901639345
0.8865401207937877,1.194995685936152
0.8886971527178602,1.1691113028472822
0.8908541846419327,1.1345987920621226
0.8930112165660052,1.1755823986194995
0.8951682484900777,1.1453839516824849
0.8973252804141502,1.1345987920621226
0.8994823123382226,1.1302847282139776
0.9016393442622951,1.194995685936152
0.9037963761863675,1.2704918032786885
0.90595340811044,1.2489214840379639
0.9081104400345126,1.2208800690250217
0.910267471958585,1.190681622088007
0.9124245038826575,1.1065573770491803
0.91458153580673,1.0353753235547887
0.9167385677308024,1.0763589301121657
0.9188955996548749,1.0526315789473684
0.9210526315789473,1.0483175150992234
0.9232096635030199,1.0267471958584988
0.9253666954270924,1.0742018981880932
0.9275237273511648,1.1087144089732528
0.9296807592752373,1.0720448662640207
0.9318377911993098,1.0375323554788611
0.9339948231233822,1.1173425366695426
0.9361518550474547,1.1496980155306298
0.9383088869715271,1.1971527178602244
0.9404659188955997,1.2014667817083693
0.9426229508196722,1.2165660051768767
0.9447799827437446,1.2187230371009492
0.9469370146678171,1.235979292493529
0.9490940465918896,1.2877480586712684
0.951251078515962,1.3352027610008628
0.9534081104400345,1.37618636755824
0.9555651423641071,1.4020707506471095
0.9577221742881795,1.4257981018119068
0.959879206212252,1.4301121656600517
0.9620362381363244,1.449525452976704
0.9641932700603969,1.4818809318377912
0.9663503019844694,1.5163934426229508
0.9685073339085418,1.5250215703192407
0.9706643658326144,1.5207075064710958
0.9728213977566869,1.4624676445211389
0.9749784296807593,1.453839516824849
0.9771354616048318,1.4797238999137188
0.9792924935289042,1.5336496980155307
0.9814495254529767,1.5660051768766179
0.9836065573770492,1.589732528041415
0.9857635893011216,1.6156169111302847
0.9879206212251942,1.6652286453839518
0.9900776531492667,1.6911130284728215
0.9922346850733391,1.716997411561691
0.9943917169974116,1.688955996548749
0.996548748921484,1.6652286453839518
0.9987057808455565,1.7105263157894737
1.000862812769629,1.7277825711820536
1.0030198446937015,1.7062122519413288
1.005176876617774,1.6544434857635892
1.0073339085418465,1.6544434857635892
1.009490940465919,1.6307161345987922
1.0116479723899914,1.589732528041415
1.0138050043140638,1.544434857635893
1.0159620362381363,1.4775668679896463
1.0181190681622088,1.4667817083692838
1.0202761000862812,1.3438308886971528
1.0224331320103537,1.3157894736842106
1.0245901639344261,1.3955996548748921
1.0267471958584988,1.4236410698878343
1.0289042277825713,1.5207075064710958
1.0310612597066438,1.5056082830025885
1.0332182916307162,1.5012942191544436
1.0353753235547887,1.4969801553062985
1.0375323554788611,1.4969801553062985
1.0396893874029336,1.4689387402933565
1.041846419327006,1.503451251078516
1.0440034512510785,1.5681622088006903
1.046160483175151,1.5595340811044003
1.0483175150992234,1.58541846419327
1.050474547023296,1.5767903364969802
1.0526315789473684,1.5314926660914583
1.0547886108714408,1.5142364106988784
1.0569456427955133,1.5163934426229508
1.059102674719586,1.548748921484038
1.0612597066436584,1.5228645383951682
1.063416738567731,1.548748921484038
1.0655737704918034,1.5595340811044003
1.0677308024158758,1.5638481449525454
1.0698878343399483,1.6005176876617775
1.0720448662640207,1.6415012942191545
1.0742018981880932,1.6458153580672994
1.0763589301121657,1.6716997411561692
1.0785159620362381,1.716997411561691
1.0806729939603106,1.7450388265746333
1.082830025884383,1.7687661777394306
1.0849870578084555,1.7644521138912856
1.087144089732528,1.7687661777394306
1.0893011216566006,1.7407247627264884
1.091458153580673,1.6501294219154443
1.0936151855047456,1.6501294219154443
1.095772217428818,1.5962036238136326
1.0979292493528905,1.59404659188956
1.100086281276963,1.5832614322691976
1.1022433132010354,1.5681622088006903
1.1044003451251079,1.5271786022433131
1.1065573770491803,1.5401207937877481
1.1087144089732528,1.4969801553062985
1.1108714408973253,1.553062985332183
1.1130284728213977,1.5228645383951682
1.1151855047454702,1.5250215703192407
1.1173425366695426,1.4559965487489215
1.119499568593615,1.3826574633304574
1.1216566005176878,1.35893011216566
1.1238136324417602,1.3308886971527178
1.1259706643658327,1.2791199309749786
1.1281276962899052,1.2791199309749786
1.1302847282139776,1.2338222605694564
1.13244176013805,1.272648835202761
