Length [mm],Keyhole depth [mm]
0.0,7.260569456427955
0.0021570319240724763,7.254098360655738
0.004314063848144953,7.232528041415013
0.0064710957722174285,7.226056945642796
0.008628127696289905,7.208800690250216
0.010785159620362382,7.195858498705781
0.012942191544434857,7.1699741156169114
0.015099223468507334,7.163503019844694
0.01725625539257981,7.141932700603969
0.019413287316652286,7.1031061259706645
0.021570319240724764,7.057808455565143
0.02372735116479724,7.003882657463331
0.025884383088869714,6.958584987057809
0.028041415012942193,6.900345125107852
0.030198446937014668,6.833477135461605
0.032355478861087146,6.80327868852459
0.03451251078515962,6.740724762726488
0.036669542709232096,6.6954270923209664
0.03882657463330457,6.6652286453839515
0.04098360655737705,6.652286453839517
0.04314063848144953,6.60267471958585
0.045297670405522,6.529335634167386
0.04745470232959448,6.481880931837791
0.04961173425366695,6.4430543572044865
0.05176876617773943,6.425798101811907
0.05392579810181191,6.395599654874892
0.056082830025884385,6.3610871440897325
0.05823986194995686,6.272648835202761
0.060396893874029335,6.205780845556514
0.06255392579810182,6.151855047454703
0.06471095772217429,6.093615185504746
0.06686798964624677,6.011647972389992
0.06902502157031924,5.96635030198447
0.07118205349439172,5.8865401207937875
0.07333908541846419,5.828300258843831
0.07549611734253667,5.800258843830889
0.07765314926660914,5.746333045729077
0.07981018119068162,5.694564279551337
0.0819672131147541,5.683779119930975
0.08412424503882658,5.6492666091458155
0.08628127696289906,5.62769628990509
0.08843830888697153,5.616911130284729
0.090595340811044,5.593183779119931
0.09275237273511648,5.586712683347714
0.09490940465918896,5.578084555651424
0.09706643658326143,5.580241587575496
0.0992234685073339,5.578084555651424
0.10138050043140638,5.5672993960310615
0.10353753235547886,5.560828300258844
0.10569456427955135,5.534943917169974
0.10785159620362382,5.509059534081104
0.1100086281276963,5.468075927523728
0.11216566005176877,5.414150129421915
0.11432269197584125,5.336496980155307
0.11647972389991372,5.237273511647972
0.1186367558239862,5.194132873166523
0.12079378774805867,5.157463330457291
0.12295081967213115,5.146678170836928
0.12510785159620363,5.148835202761001
0.1272648835202761,5.150992234685074
0.12942191544434858,5.140207075064711
0.13157894736842105,5.127264883520276
0.13373597929249353,5.120793787748059
0.135893011216566,5.1143226919758416
0.13805004314063848,5.079810181190681
0.14020707506471097,5.036669542709232
0.14236410698878343,4.965487489214841
0.14452113891285592,4.8921484037963765
0.14667817083692838,4.7735116479723905
0.14883520276100087,4.710957722174288
0.15099223468507333,4.605263157894737
0.15314926660914582,4.53839516824849
0.15530629853321828,4.4995685936151855
0.15746333045729077,4.469370146678171
0.15962036238136323,4.426229508196721
0.16177739430543572,4.367989646246764
0.1639344262295082,4.333477135461605
0.16609145815358067,4.3356341673856775
0.16824849007765316,4.333477135461605
0.17040552200172562,4.31190681622088
0.1725625539257981,4.270923209663503
0.17471958584987057,4.208369283865402
0.17687661777394306,4.163071613459879
0.17903364969801552,4.11993097497843
0.181190681622088,4.072476272648835
0.18334771354616047,4.0250215703192405
0.18550474547023296,3.9689387402933565
0.18766177739430545,3.9279551337359795
0.1898188093183779,3.8999137187230373
0.1919758412424504,3.8912855910267474
0.19413287316652286,3.8740293356341673
0.19628990509059535,3.835202761000863
0.1984469370146678,3.8287316652286454
0.2006039689387403,3.809318377911993
0.20276100086281276,3.776962899050906
0.20491803278688525,3.7057808455565144
0.2070750647109577,3.6712683347713546
0.2092320966350302,3.6302847282139776
0.2113891285591027,3.572044866264021
0.21354616048317515,3.541846419327006
0.21570319240724764,3.5245901639344264
0.2178602243313201,3.5159620362381365
0.2200172562553926,3.455565142364107
0.22217428817946505,3.40595340811044
0.22433132010353754,3.3714408973252805
0.22648835202761,3.356341673856773
0.2286453839516825,3.345556514236411
0.23080241587575498,3.3433994823123383
0.23295944779982744,3.3304572907679035
0.23511647972389993,3.323986194995686
0.2372735116479724,3.3218291630716137
0.23943054357204488,3.2937877480586715
0.24158757549611734,3.2247627264883523
0.24374460742018983,3.0953408110440037
0.2459016393442623,3.058671268334771
0.24805867126833478,2.97886108714409
0.25021570319240727,2.9249352890422777
0.25237273511647973,2.871009490940466
0.2545297670405522,2.8278688524590163
0.2566867989646247,2.8084555651423644
0.25884383088869717,2.756686798964625
0.26100086281276963,2.722174288179465
0.2631578947368421,2.7049180327868854
0.2653149266609146,2.6725625539257982
0.26747195858498707,2.6660914581535806
0.26962899050905953,2.6423641069887833
0.271786022433132,2.581967213114754
0.2739430543572045,2.5064710957722176
0.27610008628127697,2.4072476272648835
0.27825711820534943,2.346850733390854
0.28041415012942195,2.2756686798964627
0.2825711820534944,2.2174288179465056
0.28472821397756687,2.124676445211389
0.28688524590163933,2.0340811044003453
0.28904227782571185,2.006039689387403
0.2911993097497843,1.9779982743744609
0.29335634167385677,1.960742018981881
0.29551337359792923,1.9283865401207938
0.29767040552200175,1.8636755823986195
0.2998274374460742,1.8334771354616048
0.30198446937014667,1.7924935289042279
0.3041415012942192,1.7320966350301985
0.30629853321829165,1.6479723899913719
0.3084555651423641,1.5573770491803278
0.31061259706643657,1.5271786022433131
0.3127696289905091,1.5056082830025885
0.31492666091458155,1.4883520276100086
0.317083692838654,1.3955996548748921
0.31924072476272647,1.3654012079378774
0.321397756686799,1.3459879206212253
0.32355478861087145,1.264020707506471
0.3257118205349439,1.1928386540120794
0.3278688524590164,1.1712683347713546
0.3300258843830889,1.1518550474547025
0.33218291630716135,1.1302847282139776
0.3343399482312338,1.1281276962899052
0.3364969801553063,1.1151855047454702
0.3386540120793788,1.1151855047454702
0.34081104400345125,1.1130284728213977
0.3429680759275237,1.1151855047454702
0.3451251078515962,1.1087144089732528
0.3472821397756687,1.1087144089732528
0.34943917169974115,1.1130284728213977
0.35159620362381366,1.1151855047454702
0.3537532355478861,1.1151855047454702
0.3559102674719586,1.1087144089732528
0.35806729939603105,1.1173425366695426
0.36022433132010356,1.1173425366695426
0.362381363244176,1.119499568593615
0.3645383951682485,1.1130284728213977
0.36669542709232095,1.119499568593615
0.36885245901639346,1.1389128559102675
0.3710094909404659,1.13244176013805
0.3731665228645384,1.13244176013805
0.3753235547886109,1.1108714408973253
0.37748058671268336,1.1238136324417602
0.3796376186367558,1.1216566005176878
0.3817946505608283,1.119499568593615
0.3839516824849008,1.1044003451251079
0.38610871440897326,1.1022433132010354
0.3882657463330457,1.1087144089732528
0.3904227782571182,1.1087144089732528
0.3925798101811907,1.1216566005176878
0.39473684210526316,1.1389128559102675
0.3968938740293356,1.14106988783434
0.39905090595340814,1.1432269197584124
0.4012079378774806,1.1389128559102675
0.40336496980155306,1.1453839516824849
0.4055220017256255,1.1604831751509923
0.40767903364969804,1.14106988783434
0.4098360655737705,1.1432269197584124
0.41199309749784296,1.14106988783434
0.4141501294219154,1.1432269197584124
0.41630716134598794,1.136755823986195
0.4184641932700604,1.1259706643658327
0.42062122519413286,1.1130284728213977
0.4227782571182054,1.1130284728213977
0.42493528904227784,1.119499568593615
0.4270923209663503,1.1173425366695426
0.42924935289042276,1.1151855047454702
0.4314063848144953,1.1108714408973253
0.43356341673856774,1.0979292493528905
0.4357204486626402,1.100086281276963
0.4378774805867127,1.1108714408973253
0.4400345125107852,1.1130284728213977
0.44219154443485764,1.1216566005176878
0.4443485763589301,1.1130284728213977
0.4465056082830026,1.1108714408973253
0.4486626402070751,1.1108714408973253
0.45081967213114754,1.1044003451251079
0.45297670405522,1.1065573770491803
0.4551337359792925,1.100086281276963
0.457290767903365,1.100086281276963
0.45944779982743744,1.1151855047454702
0.46160483175150996,1.1151855047454702
0.4637618636755824,1.1087144089732528
0.4659188955996549,1.100086281276963
0.46807592752372734,1.091458153580673
0.47023295944779986,1.091458153580673
0.4723899913718723,1.091458153580673
0.4745470232959448,1.0979292493528905
0.47670405522001724,1.0979292493528905
0.47886108714408976,1.1044003451251079
0.4810181190681622,1.0979292493528905
0.4831751509922347,1.1065573770491803
0.4853321829163072,1.1087144089732528
0.48748921484037966,1.1151855047454702
0.4896462467644521,1.1065573770491803
0.4918032786885246,1.1130284728213977
0.4939603106125971,1.1065573770491803
0.49611734253666956,1.1022433132010354
0.498274374460742,1.0849870578084555
0.5004314063848145,1.0893011216566006
0.502588438308887,1.1044003451251079
0.5047454702329595,1.1022433132010354
0.5069025021570319,1.095772217428818
0.5090595340811044,1.082830025884383
0.5112165660051768,1.0849870578084555
0.5133735979292494,1.100086281276963
0.5155306298533219,1.100086281276963
0.5176876617773943,1.1022433132010354
0.5198446937014668,1.100086281276963
0.5220017256255393,1.1044003451251079
0.5241587575496117,1.1130284728213977
0.5263157894736842,1.1130284728213977
0.5284728213977566,1.1130284728213977
0.5306298533218292,1.1130284728213977
0.5327868852459017,1.1044003451251079
0.5349439171699741,1.1173425366695426
0.5371009490940466,1.119499568593615
0.5392579810181191,1.1173425366695426
0.5414150129421915,1.1173425366695426
0.543572044866264,1.1130284728213977
0.5457290767903366,1.1130284728213977
0.547886108714409,1.1044003451251079
0.5500431406384815,1.1022433132010354
0.5522001725625539,1.0979292493528905
0.5543572044866264,1.0979292493528905
0.5565142364106989,1.1087144089732528
0.5586712683347713,1.1130284728213977
0.5608283002588439,1.1151855047454702
0.5629853321829164,1.1216566005176878
0.5651423641069888,1.119499568593615
0.5672993960310613,1.119499568593615
0.5694564279551337,1.1151855047454702
0.5716134598792062,1.1281276962899052
0.5737704918032787,1.1345987920621226
0.5759275237273512,1.136755823986195
0.5780845556514237,1.1238136324417602
0.5802415875754962,1.1216566005176878
0.5823986194995686,1.1065573770491803
0.5845556514236411,1.1044003451251079
0.5867126833477135,1.1044003451251079
0.588869715271786,1.1065573770491803
0.5910267471958585,1.1065573770491803
0.593183779119931,1.1065573770491803
0.5953408110440035,1.1065573770491803
0.597497842968076,1.1087144089732528
0.5996548748921484,1.100086281276963
0.6018119068162209,1.1065573770491803
0.6039689387402933,1.1173425366695426
0.6061259706643658,1.1345987920621226
0.6082830025884384,1.13244176013805
0.6104400345125108,1.1238136324417602
0.6125970664365833,1.1108714408973253
0.6147540983606558,1.119499568593615
0.6169111302847282,1.1044003451251079
0.6190681622088007,1.1022433132010354
0.6212251941328731,1.095772217428818
0.6233822260569457,1.087144089732528
0.6255392579810182,1.0806729939603106
0.6276962899050906,1.0806729939603106
0.6298533218291631,1.0849870578084555
0.6320103537532356,1.082830025884383
0.634167385677308,1.0763589301121657
0.6363244176013805,1.0806729939603106
0.6384814495254529,1.0849870578084555
0.6406384814495255,1.087144089732528
0.642795513373598,1.087144089732528
0.6449525452976704,1.091458153580673
0.6471095772217429,1.1108714408973253
0.6492666091458154,1.1173425366695426
0.6514236410698878,1.1173425366695426
0.6535806729939603,1.13244176013805
0.6557377049180328,1.1065573770491803
0.6578947368421053,1.1238136324417602
0.6600517687661778,1.154012079378775
0.6622088006902502,1.1647972389991372
0.6643658326143227,1.1496980155306298
0.6665228645383952,1.1389128559102675
0.6686798964624676,1.1453839516824849
0.6708369283865402,1.1302847282139776
0.6729939603106126,1.14106988783434
0.6751509922346851,1.14106988783434
0.6773080241587576,1.1345987920621226
0.67946505608283,1.1281276962899052
0.6816220880069025,1.1345987920621226
0.683779119930975,1.1259706643658327
0.6859361518550474,1.1281276962899052
0.68809318377912,1.1389128559102675
0.6902502157031924,1.14106988783434
0.6924072476272649,1.1626402070750648
0.6945642795513374,1.1626402070750648
0.6967213114754098,1.1647972389991372
0.6988783433994823,1.1755823986194995
0.7010353753235548,1.1561691113028474
0.7031924072476273,1.1389128559102675
0.7053494391716998,1.1259706643658327
0.7075064710957722,1.1216566005176878
0.7096635030198447,1.1216566005176878
0.7118205349439172,1.1281276962899052
0.7139775668679896,1.1389128559102675
0.7161345987920621,1.1647972389991372
0.7182916307161347,1.1583261432269198
0.7204486626402071,1.1712683347713546
0.7226056945642796,1.1691113028472822
0.724762726488352,1.1755823986194995
0.7269197584124245,1.154012079378775
0.729076790336497,1.1432269197584124
0.7312338222605694,1.1216566005176878
0.7333908541846419,1.1130284728213977
0.7355478861087145,1.1151855047454702
0.7377049180327869,1.1173425366695426
0.7398619499568594,1.119499568593615
0.7420189818809318,1.1238136324417602
0.7441760138050043,1.1216566005176878
0.7463330457290768,1.1259706643658327
0.7484900776531492,1.136755823986195
0.7506471095772218,1.14106988783434
0.7528041415012943,1.1389128559102675
0.7549611734253667,1.1626402070750648
0.7571182053494392,1.1626402070750648
0.7592752372735116,1.1626402070750648
0.7614322691975841,1.1345987920621226
0.7635893011216566,1.1281276962899052
0.7657463330457291,1.1281276962899052
0.7679033649698016,1.1259706643658327
0.7700603968938741,1.1281276962899052
0.7722174288179465,1.1281276962899052
0.774374460742019,1.1345987920621226
0.7765314926660914,1.1453839516824849
0.7786885245901639,1.154012079378775
0.7808455565142364,1.1561691113028474
0.7830025884383089,1.1583261432269198
0.7851596203623814,1.1453839516824849
0.7873166522864539,1.1583261432269198
0.7894736842105263,1.1604831751509923
0.7916307161345988,1.1755823986194995
0.7937877480586712,1.2057808455565142
0.7959447799827437,1.2079378774805867
0.7981018119068163,1.2036238136324418
0.8002588438308887,1.194995685936152
0.8024158757549612,1.2165660051768767
0.8045729076790337,1.186367558239862
0.8067299396031061,1.186367558239862
0.8088869715271786,1.1712683347713546
0.811044003451251,1.1604831751509923
0.8132010353753236,1.1561691113028474
0.8153580672993961,1.1518550474547025
0.8175150992234685,1.1712683347713546
0.819672131147541,1.177739430543572
0.8218291630716135,1.1885245901639345
0.8239861949956859,1.1928386540120794
0.8261432269197584,1.1798964624676445
0.8283002588438308,1.1561691113028474
0.8304572907679034,1.182053494391717
0.8326143226919759,1.177739430543572
0.8347713546160483,1.1604831751509923
0.8369283865401208,1.1561691113028474
0.8390854184641933,1.1518550474547025
0.8412424503882657,1.1475409836065573
0.8433994823123382,1.1583261432269198
0.8455565142364108,1.1583261432269198
0.8477135461604832,1.1561691113028474
0.8498705780845557,1.14106988783434
0.8520276100086281,1.154012079378775
0.8541846419327006,1.1626402070750648
0.8563416738567731,1.1647972389991372
0.8584987057808455,1.1604831751509923
0.8606557377049181,1.1669542709232097
0.8628127696289906,1.1712683347713546
0.864969801553063,1.1755823986194995
0.8671268334771355,1.1885245901639345
0.869283865401208,1.1842105263157896
0.8714408973252804,1.182053494391717
0.8735979292493529,1.1842105263157896
0.8757549611734254,1.1842105263157896
0.8779119930974979,1.1971527178602244
0.8800690250215704,1.2057808455565142
0.8822260569456428,1.2014667817083693
0.8843830888697153,1.2100949094046591
0.8865401207937877,1.2230371009490941
0.8886971527178602,1.214408973252804
0.8908541846419327,1.2165660051768767
0.8930112165660052,1.214408973252804
0.8951682484900777,1.2230371009490941
0.8973252804141502,1.2079378774805867
0.8994823123382226,1.2251941328731666
0.9016393442622951,1.2251941328731666
0.9037963761863675,1.2230371009490941
0.90595340811044,1.2208800690250217
0.9081104400345126,1.214408973252804
0.910267471958585,1.2014667817083693
0.9124245038826575,1.1842105263157896
0.91458153580673,1.1971527178602244
0.9167385677308024,1.186367558239862
0.9188955996548749,1.1993097497842968
0.9210526315789473,1.2100949094046591
0.9232096635030199,1.2208800690250217
0.9253666954270924,1.231665228645384
0.9275237273511648,1.2208800690250217
0.9296807592752373,1.2122519413287316
0.9318377911993098,1.2165660051768767
0.9339948231233822,1.2057808455565142
0.9361518550474547,1.2187230371009492
0.9383088869715271,1.2230371009490941
0.9404659188955997,1.2295081967213115
0.9426229508196722,1.2402933563416738
0.9447799827437446,1.2208800690250217
0.9469370146678171,1.235979292493529
0.9490940465918896,1.2230371009490941
0.951251078515962,1.2187230371009492
0.9534081104400345,1.190681622088007
0.9555651423641071,1.1993097497842968
0.9577221742881795,1.2251941328731666
0.959879206212252,1.2338222605694564
0.9620362381363244,1.235979292493529
0.9641932700603969,1.231665228645384
0.9663503019844694,1.235979292493529
0.9685073339085418,1.2467644521138914
0.9706643658326144,1.2489214840379639
0.9728213977566869,1.264020707506471
0.9749784296807593,1.2748058671268334
0.9771354616048318,1.264020707506471
0.9792924935289042,1.2618636755823986
0.9814495254529767,1.2661777394305436
0.9836065573770492,1.272648835202761
0.9857635893011216,1.281276962899051
0.9879206212251942,1.2985332182916307
0.9900776531492667,1.2963761863675582
0.9922346850733391,1.2899050905953409
0.9943917169974116,1.285591026747196
0.996548748921484,1.2553925798101813
0.9987057808455565,1.2446074201898187
1.000862812769629,1.2424503882657463
1.0030198446937015,1.2381363244176014
1.005176876617774,1.2338222605694564
1.0073339085418465,1.2251941328731666
1.009490940465919,1.227351164797239
1.0116479723899914,1.235979292493529
1.0138050043140638,1.231665228645384
1.0159620362381363,1.231665228645384
1.0181190681622088,1.227351164797239
1.0202761000862812,1.227351164797239
1.0224331320103537,1.2208800690250217
1.0245901639344261,1.2208800690250217
1.0267471958584988,1.227351164797239
1.0289042277825713,1.2295081967213115
1.0310612597066438,1.2510785159620363
1.0332182916307162,1.2575496117342537
1.0353753235547887,1.264020707506471
1.0375323554788611,1.268334771354616
1.0396893874029336,1.268334771354616
1.041846419327006,1.2446074201898187
1.0440034512510785,1.2338222605694564
1.046160483175151,1.2295081967213115
1.0483175150992234,1.2230371009490941
1.050474547023296,1.2230371009490941
1.0526315789473684,1.2165660051768767
1.0547886108714408,1.2187230371009492
1.0569456427955133,1.227351164797239
1.059102674719586,1.231665228645384
1.0612597066436584,1.2251941328731666
1.063416738567731,1.2402933563416738
1.0655737704918034,1.2532355478861088
1.0677308024158758,1.281276962899051
1.0698878343399483,1.2791199309749786
1.0720448662640207,1.2575496117342537
1.0742018981880932,1.2381363244176014
1.0763589301121657,1.2295081967213115
1.0785159620362381,1.2467644521138914
1.0806729939603106,1.2575496117342537
1.082830025884383,1.2704918032786885
1.0849870578084555,1.268334771354616
1.087144089732528,1.2381363244176014
1.0893011216566006,1.2100949094046591
1.091458153580673,1.2014667817083693
1.0936151855047456,1.1993097497842968
1.095772217428818,1.2057808455565142
1.0979292493528905,1.214408973252804
1.100086281276963,1.2230371009490941
1.1022433132010354,1.2208800690250217
1.1044003451251079,1.2295081967213115
1.1065573770491803,1.235979292493529
1.1087144089732528,1.2295081967213115
1.1108714408973253,1.227351164797239
1.1130284728213977,1.2187230371009492
1.1151855047454702,1.2251941328731666
1.1173425366695426,1.2381363244176014
1.119499568593615,1.2402933563416738
1.1216566005176878,1.2489214840379639
1.1238136324417602,1.2553925798101813
1.1259706643658327,1.2532355478861088
1.1281276962899052,1.2575496117342537
1.1302847282139776,1.2597066436583262
1.13244176013805,1.2748058671268334
1.1345987920621226,1.2877480586712684
1.136755823986195,1.3157894736842106
