Length [mm],Keyhole depth [mm]
0.0,6.199309749784297
0.0021570319240724,6.225194132873167
0.0043140638481449,6.177739430543572
0.0064710957722174,6.156169111302847
0.0086281276962899,6.084987057808456
0.0107851596203623,5.959879206212252
0.0129421915444348,5.854184641932701
0.0150992234685073,5.662208800690251
0.0172562553925798,5.4702329594478
0.0194132873166522,5.286885245901639
0.0215703192407247,5.140207075064711
0.0237273511647972,5.047454702329595
0.0258843830888697,4.864106988783434
0.0280414150129421,4.6850733390854185
0.0301984469370146,4.458584987057809
0.0323554788610871,4.089732528041415
0.0345125107851596,3.772648835202761
0.036669542709232,3.5440034512510787
0.0388265746333045,3.3261432269197586
0.040983606557377,3.2053494391717
0.0431406384814495,3.0371009490940466
0.045297670405522,2.976704055220017
0.0474547023295944,2.886108714408973
0.0496117342536669,2.8925798101811906
0.0517687661777394,2.825711820534944
0.0539257981018119,2.756686798964625
0.0560828300258843,2.7243313201035377
0.0582398619499568,2.6919758412424506
0.0603968938740293,2.581967213114754
0.0625539257981018,2.52588438308887
0.0647109577221742,2.549611734253667
0.0668679896462467,2.6013805004314063
0.0690250215703192,2.6509922346850736
0.0711820534943917,2.6790336496980154
0.0733390854184641,2.7070750647109576
0.0754961173425366,2.6553062985332185
0.0776531492666091,2.722174288179465
0.0798101811906816,2.6790336496980154
0.0819672131147541,2.7286453839516827
0.0841242450388265,2.8106125970664366
0.086281276962899,2.8106125970664366
0.0884383088869715,2.698446937014668
0.090595340811044,2.562553925798102
0.0927523727351164,2.459016393442623
0.0949094046591889,2.487057808455565
0.0970664365832614,2.489214840379637
0.0992234685073339,2.5
0.1013805004314063,2.4525452976704054
0.1035375323554788,2.454702329594478
0.1056945642795513,2.4158757549611733
0.1078515962036238,2.381363244176014
0.1100086281276963,2.344693701466782
0.1121656600517687,2.344693701466782
0.1143226919758412,2.2648835202761
0.1164797238999137,2.204486626402071
0.1186367558239862,2.159188955996549
0.1207937877480586,2.2260569456427954
0.1229508196721311,2.223899913718723
0.1251078515962036,2.228213977566868
0.1272648835202761,2.174288179465056
0.1294219154443485,2.0815358067299394
0.131578947368421,2.088006902502157
0.1337359792924935,2.0729076790336496
0.135893011216566,2.0297670405522004
0.1380500431406384,1.960742018981881
0.1402070750647109,2.051337359792925
0.1423641069887834,2.1074201898188094
0.1445211389128559,2.1052631578947367
0.1466781708369283,2.0232959447799828
0.1488352027610008,2.06427955133736
0.1509922346850733,2.2217428817946505
0.1531492666091458,2.31665228645384
0.1553062985332182,2.359792924935289
0.1574633304572907,2.31665228645384
0.1596203623813632,2.223899913718723
0.1617773943054357,2.204486626402071
0.1639344262295082,2.159188955996549
0.1660914581535806,2.182916307161346
0.1682484900776531,2.137618636755824
0.1704055220017256,2.09879206212252
0.1725625539257981,2.05565142364107
0.1747195858498705,2.0232959447799828
0.176876617773943,2.083692838654012
0.1790336496980155,2.187230371009491
0.181190681622088,2.206643658326143
0.1833477135461604,2.29939603106126
0.1855047454702329,2.23899913718723
0.1876617773943054,2.286453839516825
0.1898188093183779,2.336065573770492
0.1919758412424504,2.3123382226056948
0.1941328731665228,2.430974978429681
0.1962899050905953,2.471958584987058
0.1984469370146678,2.50862812769629
0.2006039689387403,2.387834339948231
0.2027610008628127,2.323123382226057
0.2049180327868852,2.30802415875755
0.2070750647109577,2.2195858498705783
0.2092320966350302,2.198015530629853
0.2113891285591027,2.128990509059534
0.2135461604831751,2.236842105263158
0.2157031924072476,2.2174288179465056
0.2178602243313201,2.195858498705781
0.2200172562553926,2.126833477135462
0.222174288179465,2.04702329594478
0.2243313201035375,2.0211389128559105
0.22648835202761,1.954270923209664
0.2286453839516825,1.8399482312338225
0.2308024158757549,1.729939603106126
0.2329594477998274,1.6738567730802416
0.2351164797238999,1.609145815358067
0.2372735116479724,1.6522864538395168
0.2394305435720448,1.6630716134598793
0.2415875754961173,1.684641932700604
0.2437446074201898,1.7083692838654012
0.2459016393442623,1.7493528904227782
0.2480586712683347,1.6997411561691114
0.2502157031924072,1.8183779119930976
0.2523727351164797,1.919758412424504
0.2545297670405522,2.001725625539258
0.2566867989646247,2.0340811044003453
0.2588438308886971,1.9672131147540983
0.2610008628127696,1.8852459016393444
0.2631578947368421,1.8399482312338225
0.2653149266609146,1.8399482312338225
0.267471958584987,1.8679896462467644
0.2696289905090595,1.883088869715272
0.271786022433132,1.8852459016393444
0.2739430543572045,1.865832614322692
0.2761000862812769,1.8917169974115615
0.2782571182053494,1.9219154443485764
0.2804141501294219,1.956427955133736
0.2825711820534944,1.9132873166522864
0.2847282139775668,1.9089732528041412
0.2868852459016393,1.9327006039689387
0.2890422778257118,1.9046591889559965
0.2911993097497843,1.865832614322692
0.2933563416738567,1.8270060396893877
0.2955133735979292,1.7946505608283003
0.2976704055220017,1.8270060396893877
0.2998274374460742,1.8421052631578947
0.3019844693701466,1.9132873166522864
0.3041415012942192,1.9456427955133735
0.3062985332182916,1.9348576358930112
0.3084555651423641,1.9240724762726489
0.3106125970664365,1.9305435720448665
0.3127696289905091,1.9305435720448665
0.3149266609145815,1.8442622950819672
0.317083692838654,1.906816220880069
0.3192407247627264,2.001725625539258
0.321397756686799,1.9499568593615184
0.3235547886108714,1.84641932700604
0.3257118205349439,1.8313201035375324
0.3278688524590164,1.7946505608283003
0.3300258843830889,1.7558239861949958
0.3321829163071613,1.7083692838654012
0.3343399482312338,1.688955996548749
0.3364969801553063,1.6415012942191545
0.3386540120793788,1.6673856773080242
0.3408110440034512,1.7579810181190685
0.3429680759275237,1.7968075927523728
0.3451251078515962,1.8636755823986195
0.3472821397756687,1.937014667817084
0.3494391716997411,2.010353753235548
0.3515962036238136,1.9952545297670403
0.3537532355478861,1.9477998274374464
0.3559102674719586,1.9176013805004315
0.358067299396031,1.9887834339948232
0.3602243313201035,1.9866264020707507
0.362381363244176,1.939171699741156
0.3645383951682485,1.902502157031924
0.3666954270923209,1.9240724762726489
0.3688524590163934,1.8744607420189816
0.3710094909404659,1.8528904227782568
0.3731665228645384,1.8766177739430543
0.3753235547886109,1.8442622950819672
0.3774805867126833,1.9089732528041412
0.3796376186367558,1.81190681622088
0.3817946505608283,1.8744607420189816
0.3839516824849008,1.9089732528041412
0.3861087144089732,1.8528904227782568
0.3882657463330457,1.8809318377911997
0.3904227782571182,1.8895599654874893
0.3925798101811907,1.906816220880069
0.3947368421052631,1.9434857635893013
0.3968938740293356,1.9132873166522864
0.3990509059534081,1.857204486626402
0.4012079378774806,1.775237273511648
0.403364969801553,1.809749784296808
0.4055220017256255,1.861518550474547
0.407679033649698,1.8377911993097495
0.4098360655737705,1.8550474547023297
0.4119930974978429,1.8874029335634168
0.4141501294219154,1.8507333908541848
0.4163071613459879,1.8679896462467644
0.4184641932700604,1.8679896462467644
0.4206212251941328,1.8874029335634168
0.4227782571182054,1.915444348576359
0.4249352890422778,1.980155306298533
0.4270923209663503,2.014667817083693
0.4292493528904227,2.01251078515962
0.4314063848144953,1.9715271786022432
0.4335634167385677,1.8917169974115615
0.4357204486626402,1.8766177739430543
0.4378774805867127,1.902502157031924
0.4400345125107852,1.8377911993097495
0.4421915444348576,1.792493528904228
0.4443485763589301,1.8744607420189816
0.4465056082830026,1.9240724762726489
0.4486626402070751,2.006039689387403
0.4508196721311475,1.956427955133736
0.45297670405522,1.956427955133736
0.4551337359792925,1.902502157031924
0.457290767903365,1.84641932700604
0.4594477998274374,1.8313201035375324
0.4616048317515099,1.7946505608283003
0.4637618636755824,1.8226919758412423
0.4659188955996549,1.7277825711820536
0.4680759275237273,1.7493528904227782
0.4702329594477998,1.7946505608283003
0.4723899913718723,1.8766177739430543
0.4745470232959448,1.997411561691113
0.4767040552200172,1.9672131147540983
0.4788610871440897,1.9628990509059532
0.4810181190681622,1.8874029335634168
0.4831751509922347,1.84641932700604
0.4853321829163072,1.8550474547023297
0.4874892148403796,1.81190681622088
0.4896462467644521,1.7817083692838651
0.4918032786885246,1.7968075927523728
0.4939603106125971,1.792493528904228
0.4961173425366695,1.7601380500431407
0.498274374460742,1.7213114754098362
0.5004314063848145,1.6824849007765317
0.502588438308887,1.6824849007765317
0.5047454702329595,1.676013805004314
0.5069025021570319,1.688955996548749
0.5090595340811044,1.712683347713546
0.5112165660051768,1.7407247627264884
0.5133735979292494,1.7860224331320105
0.5155306298533219,1.738567730802416
0.5176876617773943,1.807592752372735
0.5198446937014668,1.7903364969801554
0.5220017256255393,1.8895599654874893
0.5241587575496117,2.0081967213114758
0.5263157894736842,2.051337359792925
0.5284728213977566,2.036238136324417
0.5306298533218292,1.9585849870578085
0.5327868852459017,1.9089732528041412
0.5349439171699741,1.8313201035375324
0.5371009490940466,1.8183779119930976
0.5392579810181191,1.7687661777394306
0.5414150129421915,1.7622950819672132
0.543572044866264,1.8334771354616048
0.5457290767903366,1.956427955133736
0.547886108714409,1.952113891285591
0.5500431406384815,1.9628990509059532
0.5522001725625539,1.937014667817084
0.5543572044866264,2.006039689387403
0.5565142364106989,2.0340811044003453
0.5586712683347713,2.06427955133736
0.5608283002588439,2.0534943917169977
0.5629853321829164,1.993097497842968
0.5651423641069888,1.9672131147540983
0.5672993960310613,1.997411561691113
0.5694564279551337,1.9779982743744609
0.5716134598792062,2.014667817083693
0.5737704918032787,2.016824849007765
0.5759275237273512,2.096635030198447
0.5780845556514237,2.1031061259706645
0.5802415875754962,2.0901639344262297
0.5823986194995686,2.079378774805867
0.5845556514236411,2.0621225194132875
0.5867126833477135,2.100949094046592
0.588869715271786,2.150560828300259
0.5910267471958585,2.1397756686798965
0.593183779119931,2.1031061259706645
0.5953408110440035,2.133304572907679
0.597497842968076,2.0772217428817945
0.5996548748921484,2.0750647109577223
0.6018119068162209,2.001725625539258
0.6039689387402933,1.9693701466781708
0.6061259706643658,1.8809318377911997
0.6082830025884384,1.792493528904228
0.6104400345125108,1.775237273511648
0.6125970664365833,1.7968075927523728
0.6147540983606558,1.8593615185504744
0.6169111302847282,1.9456427955133735
0.6190681622088007,1.9779982743744609
0.6212251941328731,2.0211389128559105
0.6233822260569457,2.014667817083693
0.6255392579810182,2.0254529767040554
0.6276962899050906,1.9499568593615184
0.6298533218291631,1.960742018981881
0.6320103537532356,1.9866264020707507
0.634167385677308,2.04702329594478
0.6363244176013805,2.1138912855910266
0.6384814495254529,2.122519413287317
0.6406384814495255,2.05565142364107
0.642795513373598,2.137618636755824
0.6449525452976704,2.2131147540983607
0.6471095772217429,2.23899913718723
0.6492666091458154,2.245470232959448
0.6514236410698878,2.202329594477998
0.6535806729939603,2.204486626402071
0.6557377049180328,2.2131147540983607
0.6578947368421053,2.2109577221742884
0.6600517687661778,2.0750647109577223
0.6622088006902502,2.010353753235548
0.6643658326143227,1.9327006039689387
0.6665228645383952,1.8528904227782568
0.6686798964624676,1.8809318377911997
0.6708369283865402,1.915444348576359
0.6729939603106126,1.8917169974115615
0.6751509922346851,1.861518550474547
0.6773080241587576,1.8442622950819672
0.67946505608283,1.8507333908541848
0.6816220880069025,1.8442622950819672
0.683779119930975,1.906816220880069
0.6859361518550474,1.8377911993097495
0.68809318377912,1.8507333908541848
0.6902502157031924,1.8528904227782568
0.6924072476272649,1.8852459016393444
0.6945642795513374,1.9844693701466785
0.6967213114754098,2.0772217428817945
0.6988783433994823,2.159188955996549
0.7010353753235548,2.172131147540984
0.7031924072476273,2.206643658326143
0.7053494391716998,2.202329594477998
0.7075064710957722,2.1764452113891286
0.7096635030198447,2.124676445211389
0.7118205349439172,2.0664365832614324
0.7139775668679896,2.0081967213114758
0.7161345987920621,1.960742018981881
0.7182916307161347,1.8377911993097495
0.7204486626402071,1.7903364969801554
0.7226056945642796,1.7471958584987055
0.724762726488352,1.7730802415875755
0.7269197584124245,1.7687661777394306
0.729076790336497,1.734253666954271
0.7312338222605694,1.766609145815358
0.7333908541846419,1.7622950819672132
0.7355478861087145,1.8183779119930976
0.7377049180327869,1.878774805867127
0.7398619499568594,1.870146678170837
0.7420189818809318,1.8852459016393444
0.7441760138050043,1.865832614322692
0.7463330457290768,1.870146678170837
0.7484900776531492,1.9262295081967211
0.7506471095772218,1.8809318377911997
0.7528041415012943,1.906816220880069
0.7549611734253667,1.939171699741156
0.7571182053494392,1.8874029335634168
0.7592752372735116,1.9650560828300256
0.7614322691975841,1.8766177739430543
0.7635893011216566,1.883088869715272
0.7657463330457291,1.9715271786022432
0.7679033649698016,1.9650560828300256
0.7700603968938741,2.01251078515962
0.7722174288179465,1.980155306298533
0.774374460742019,1.9176013805004315
0.7765314926660914,1.870146678170837
0.7786885245901639,1.8032786885245904
0.7808455565142364,1.7687661777394306
0.7830025884383089,1.7536669542709231
0.7851596203623814,1.7213114754098362
0.7873166522864539,1.770923209663503
0.7894736842105263,1.809749784296808
0.7916307161345988,1.7601380500431407
0.7937877480586712,1.716997411561691
0.7959447799827437,1.697584124245039
0.7981018119068163,1.688955996548749
0.8002588438308887,1.6113028472821398
0.8024158757549612,1.6415012942191545
0.8045729076790337,1.7364106988783434
0.8067299396031061,1.792493528904228
0.8088869715271786,1.8442622950819672
0.811044003451251,1.8442622950819672
0.8132010353753236,1.8809318377911997
0.8153580672993961,1.8334771354616048
0.8175150992234685,1.809749784296808
0.819672131147541,1.8054357204486624
0.8218291630716135,1.7558239861949958
0.8239861949956859,1.7730802415875755
0.8261432269197584,1.7320966350301985
0.8283002588438308,1.734253666954271
0.8304572907679034,1.738567730802416
0.8326143226919759,1.8593615185504744
0.8347713546160483,1.919758412424504
0.8369283865401208,1.9628990509059532
0.8390854184641933,1.9844693701466785
0.8412424503882657,1.9866264020707507
0.8433994823123382,2.0901639344262297
0.8455565142364108,2.0685936151855047
0.8477135461604832,2.092320966350302
0.8498705780845557,2.0319240724762726
0.8520276100086281,1.9456427955133735
0.8541846419327006,1.8356341673856773
0.8563416738567731,1.770923209663503
0.8584987057808455,1.7062122519413288
0.8606557377049181,1.676013805004314
0.8628127696289906,1.775237273511648
0.864969801553063,1.807592752372735
0.8671268334771355,1.861518550474547
0.869283865401208,1.8399482312338225
0.8714408973252804,1.807592752372735
0.8735979292493529,1.770923209663503
0.8757549611734254,1.766609145815358
0.8779119930974979,1.788179465056083
0.8800690250215704,1.8032786885245904
0.8822260569456428,1.81190681622088
0.8843830888697153,1.809749784296808
0.8865401207937877,1.8313201035375324
0.8886971527178602,1.8054357204486624
0.8908541846419327,1.807592752372735
0.8930112165660052,1.8442622950819672
0.8951682484900777,1.81190681622088
0.8973252804141502,1.8356341673856773
0.8994823123382226,1.8032786885245904
0.9016393442622952,1.9283865401207936
0.9037963761863675,1.990940465918896
0.90595340811044,1.9693701466781708
0.9081104400345126,1.9327006039689387
0.910267471958585,1.902502157031924
0.9124245038826576,1.7946505608283003
0.91458153580673,1.7191544434857635
0.9167385677308024,1.7536669542709231
0.9188955996548748,1.7234685073339089
0.9210526315789472,1.7105263157894737
0.92320966350302,1.6824849007765317
0.9253666954270924,1.7407247627264884
0.9275237273511648,1.82916307161346
0.9296807592752372,1.8485763589301123
0.9318377911993098,1.7730802415875755
0.9339948231233822,1.8313201035375324
0.9361518550474548,1.8528904227782568
0.9383088869715271,1.8550474547023297
0.9404659188955996,1.883088869715272
0.9426229508196722,1.9348576358930112
0.9447799827437446,1.9715271786022432
0.9469370146678172,1.9995685936151852
0.9490940465918896,2.042709232096635
0.951251078515962,2.09879206212252
0.9534081104400344,2.1031061259706645
0.9555651423641072,2.120362381363244
0.9577221742881796,2.118205349439172
0.959879206212252,2.1095772217428816
0.9620362381363244,2.135461604831752
0.9641932700603968,2.1678170836928388
0.9663503019844694,2.2260569456427954
0.9685073339085418,2.232528041415013
0.9706643658326144,2.180759275237273
0.9728213977566867,2.122519413287317
0.9749784296807592,2.118205349439172
0.9771354616048318,2.163503019844694
0.9792924935289042,2.2303710094909404
0.9814495254529768,2.2605694564279557
0.9836065573770492,2.23899913718723
0.9857635893011216,2.2174288179465056
0.9879206212251942,2.288610871440897
0.9900776531492668,2.349007765314927
0.9922346850733392,2.392148403796376
0.9943917169974116,2.377049180327869
0.996548748921484,2.30802415875755
0.9987057808455564,2.3317515099223467
1.000862812769629,2.28213977566868
1.0030198446937015,2.269197584124245
1.005176876617774,2.223899913718723
1.0073339085418465,2.2605694564279557
1.009490940465919,2.245470232959448
1.0116479723899914,2.1850733390854185
1.0138050043140638,2.126833477135462
1.0159620362381363,2.044866264020708
1.0181190681622088,2.0621225194132875
1.0202761000862812,1.960742018981881
1.0224331320103537,1.9628990509059532
1.024590163934426,2.0491803278688523
1.0267471958584988,2.0729076790336496
1.0289042277825713,2.174288179465056
1.0310612597066438,2.1484037963761864
1.0332182916307162,2.096635030198447
1.035375323554789,2.094477998274374
1.0375323554788611,2.128990509059534
1.0396893874029336,2.124676445211389
1.041846419327006,2.165660051768766
1.0440034512510783,2.200172562553926
1.046160483175151,2.159188955996549
1.0483175150992234,2.146246764452114
1.050474547023296,2.144089732528041
1.0526315789473684,2.0772217428817945
1.0547886108714408,2.092320966350302
1.0569456427955133,2.079378774805867
1.059102674719586,2.1160483175150997
1.0612597066436584,2.137618636755824
1.063416738567731,2.1786022433132013
1.0655737704918034,2.169974115616911
1.0677308024158758,2.159188955996549
1.0698878343399485,2.200172562553926
1.0720448662640207,2.208800690250216
1.0742018981880932,2.202329594477998
1.0763589301121657,2.204486626402071
1.078515962036238,2.2605694564279557
1.0806729939603106,2.3209663503019846
1.082830025884383,2.349007765314927
1.0849870578084555,2.392148403796376
1.087144089732528,2.443917169974116
1.0893011216566006,2.443917169974116
1.091458153580673,2.3705780845556514
1.0936151855047456,2.325280414150129
1.095772217428818,2.2648835202761
1.0979292493528905,2.2195858498705783
1.100086281276963,2.200172562553926
1.1022433132010354,2.195858498705781
1.104400345125108,2.150560828300259
1.1065573770491803,2.146246764452114
1.1087144089732528,2.1117342536669543
1.1108714408973253,2.200172562553926
1.1130284728213975,2.202329594477998
1.1151855047454702,2.2195858498705783
1.1173425366695426,2.1764452113891286
1.119499568593615,2.083692838654012
1.1216566005176878,2.018981880931838
1.1238136324417602,1.9672131147540983
1.1259706643658327,1.9283865401207936
1.1281276962899052,1.973684210526316
1.1302847282139776,1.9628990509059532
1.13244176013805,2.001725625539258
1.1345987920621226,1.954270923209664
1.136755823986195,1.9132873166522864
1.1389128559102677,1.8421052631578947
1.14106988783434,1.8140638481449525
1.1432269197584124,1.82053494391717
1.1453839516824849,1.8485763589301123
1.147540983606557,1.8550474547023297
1.1496980155306298,1.8485763589301123
1.1518550474547025,1.954270923209664
1.154012079378775,1.9844693701466785
