Length [mm],Keyhole depth [mm]
0.0,5.584555651423641
0.0021570319240724,5.612597066436583
0.0043140638481449,5.571613459879206
0.0064710957722174,5.547886108714409
0.0086281276962899,5.463761863675583
0.0107851596203623,5.334339948231234
0.0129421915444348,5.245901639344263
0.0150992234685073,5.079810181190681
0.0172562553925798,4.911561691113029
0.0194132873166522,4.732528041415013
0.0215703192407247,4.590163934426229
0.0237273511647972,4.495254529767041
0.0258843830888697,4.309749784296808
0.0280414150129421,4.139344262295082
0.0301984469370146,3.932269197584125
0.0323554788610871,3.587144089732528
0.0345125107851596,3.2894736842105265
0.036669542709232,3.056514236410699
0.0388265746333045,2.871009490940466
0.040983606557377,2.758843830888697
0.0431406384814495,2.6056945642795517
0.045297670405522,2.562553925798102
0.0474547023295944,2.480586712683348
0.0496117342536669,2.504314063848145
0.0517687661777394,2.418032786885246
0.0539257981018119,2.323123382226057
0.0560828300258843,2.2605694564279557
0.0582398619499568,2.2562553925798103
0.0603968938740293,2.1786022433132013
0.0625539257981018,2.118205349439172
0.0647109577221742,2.118205349439172
0.0668679896462467,2.146246764452114
0.0690250215703192,2.191544434857636
0.0711820534943917,2.1937014667817083
0.0733390854184641,2.223899913718723
0.0754961173425366,2.208800690250216
0.0776531492666091,2.279982743744608
0.0798101811906816,2.2584124245038826
0.0819672131147541,2.3274374460742018
0.0841242450388265,2.392148403796376
0.086281276962899,2.387834339948231
0.0884383088869715,2.2972389991371878
0.090595340811044,2.195858498705781
0.0927523727351164,2.0729076790336496
0.0949094046591889,2.1397756686798965
0.0970664365832614,2.150560828300259
0.0992234685073339,2.198015530629853
0.1013805004314063,2.1160483175150997
0.1035375323554788,2.1031061259706645
0.1056945642795513,2.01251078515962
0.1078515962036238,1.980155306298533
0.1100086281276963,1.9046591889559965
0.1121656600517687,1.8766177739430543
0.1143226919758412,1.82916307161346
0.1164797238999137,1.7364106988783434
0.1186367558239862,1.6824849007765317
0.1207937877480586,1.729939603106126
0.1229508196721311,1.7083692838654012
0.1251078515962036,1.712683347713546
0.1272648835202761,1.6997411561691114
0.1294219154443485,1.6285591026747197
0.131578947368421,1.6307161345987922
0.1337359792924935,1.5746333045729075
0.135893011216566,1.5465918895599655
0.1380500431406384,1.4689387402933565
0.1402070750647109,1.5638481449525454
0.1423641069887834,1.6716997411561692
0.1445211389128559,1.693270060396894
0.1466781708369283,1.6716997411561692
0.1488352027610008,1.6954270923209664
0.1509922346850733,1.8485763589301123
0.1531492666091458,1.9327006039689387
0.1553062985332182,1.9628990509059532
0.1574633304572907,1.870146678170837
0.1596203623813632,1.7622950819672132
0.1617773943054357,1.6824849007765317
0.1639344262295082,1.5962036238136326
0.1660914581535806,1.5616911130284727
0.1682484900776531,1.490509059534081
0.1704055220017256,1.449525452976704
0.1725625539257981,1.458153580672994
0.1747195858498705,1.436583261432269
0.176876617773943,1.4344262295081966
0.1790336496980155,1.4818809318377912
0.181190681622088,1.458153580672994
0.1833477135461604,1.540120793787748
0.1855047454702329,1.4991371872303711
0.1876617773943054,1.5681622088006903
0.1898188093183779,1.6264020707506472
0.1919758412424504,1.5918895599654874
0.1941328731665228,1.7256255392579811
0.1962899050905953,1.7795513373597929
0.1984469370146678,1.809749784296808
0.2006039689387403,1.6954270923209664
0.2027610008628127,1.639344262295082
0.2049180327868852,1.598360655737705
0.2070750647109577,1.5422778257118206
0.2092320966350302,1.5099223468507337
0.2113891285591027,1.4667817083692838
0.2135461604831751,1.5509059534081104
0.2157031924072476,1.5358067299396032
0.2178602243313201,1.490509059534081
0.2200172562553926,1.421484037963762
0.222174288179465,1.3567730802415876
0.2243313201035375,1.3352027610008628
0.22648835202761,1.2597066436583262
0.2286453839516825,1.1389128559102677
0.2308024158757549,1.0375323554788611
0.2329594477998274,0.9987057808455564
0.2351164797238999,0.9383088869715271
0.2372735116479724,0.9792924935289042
0.2394305435720448,0.9814495254529768
0.2415875754961173,0.9900776531492668
0.2437446074201898,1.0073339085418465
0.2459016393442623,1.050474547023296
0.2480586712683347,0.9728213977566867
0.2502157031924072,1.087144089732528
0.2523727351164797,1.2014667817083693
0.2545297670405522,1.3308886971527178
0.2566867989646247,1.3438308886971528
0.2588438308886971,1.2597066436583262
0.2610008628127696,1.1604831751509923
0.2631578947368421,1.0806729939603106
0.2653149266609146,1.0698878343399485
0.267471958584987,1.0806729939603106
0.2696289905090595,1.0742018981880932
0.271786022433132,1.078515962036238
0.2739430543572045,1.050474547023296
0.2761000862812769,1.0677308024158758
0.2782571182053494,1.1173425366695426
0.2804141501294219,1.1130284728213975
0.2825711820534944,1.0936151855047456
0.2847282139775668,1.1238136324417602
0.2868852459016393,1.1281276962899052
0.2890422778257118,1.104400345125108
0.2911993097497843,1.078515962036238
0.2933563416738567,1.035375323554789
0.2955133735979292,1.0310612597066438
0.2976704055220017,1.0742018981880932
0.2998274374460742,1.1022433132010354
0.3019844693701466,1.1647972389991372
0.3041415012942192,1.1798964624676445
0.3062985332182916,1.194995685936152
0.3084555651423641,1.1798964624676445
0.3106125970664365,1.2014667817083693
0.3127696289905091,1.194995685936152
0.3149266609145815,1.1238136324417602
0.317083692838654,1.1518550474547025
0.3192407247627264,1.1971527178602244
0.321397756686799,1.1604831751509923
0.3235547886108714,1.0849870578084555
0.3257118205349439,1.0936151855047456
0.3278688524590164,1.063416738567731
0.3300258843830889,1.050474547023296
0.3321829163071613,1.009490940465919
0.3343399482312338,0.9555651423641072
0.3364969801553063,0.9081104400345126
0.3386540120793788,0.9404659188955996
0.3408110440034512,1.0224331320103537
0.3429680759275237,1.000862812769629
0.3451251078515962,1.0483175150992234
0.3472821397756687,1.0936151855047456
0.3494391716997411,1.1626402070750648
0.3515962036238136,1.1798964624676445
0.3537532355478861,1.1798964624676445
0.3559102674719586,1.1842105263157896
0.358067299396031,1.2402933563416738
0.3602243313201035,1.2036238136324418
0.362381363244176,1.1561691113028474
0.3645383951682485,1.119499568593615
0.3666954270923209,1.1302847282139776
0.3688524590163934,1.100086281276963
0.3710094909404659,1.0893011216566006
0.3731665228645384,1.1173425366695426
0.3753235547886109,1.1065573770491803
0.3774805867126833,1.1583261432269198
0.3796376186367558,1.1173425366695426
0.3817946505608283,1.177739430543572
0.3839516824849008,1.2014667817083693
0.3861087144089732,1.1259706643658327
0.3882657463330457,1.0849870578084555
0.3904227782571182,1.0763589301121657
0.3925798101811907,1.091458153580673
0.3947368421052631,1.1259706643658327
0.3968938740293356,1.095772217428818
0.3990509059534081,1.0332182916307162
0.4012079378774806,0.9490940465918896
0.403364969801553,0.9879206212251942
0.4055220017256255,1.046160483175151
0.407679033649698,1.0310612597066438
0.4098360655737705,1.0612597066436584
0.4119930974978429,1.078515962036238
0.4141501294219154,1.0806729939603106
0.4163071613459879,1.0612597066436584
0.4184641932700604,1.059102674719586
0.4206212251941328,1.082830025884383
0.4227782571182054,1.100086281276963
0.4249352890422778,1.1281276962899052
0.4270923209663503,1.1971527178602244
0.4292493528904227,1.1971527178602244
0.4314063848144953,1.1755823986194995
0.4335634167385677,1.1216566005176878
0.4357204486626402,1.0893011216566006
0.4378774805867127,1.0720448662640207
0.4400345125107852,1.009490940465919
0.4421915444348576,0.9706643658326144
0.4443485763589301,1.0742018981880932
0.4465056082830026,1.1022433132010354
0.4486626402070751,1.1583261432269198
0.4508196721311475,1.1087144089732528
0.45297670405522,1.0763589301121657
0.4551337359792925,0.9987057808455564
0.457290767903365,0.9426229508196722
0.4594477998274374,0.91458153580673
0.4616048317515099,0.8822260569456428
0.4637618636755824,0.8908541846419327
0.4659188955996549,0.8520276100086281
0.4680759275237273,0.9339948231233822
0.4702329594477998,0.9879206212251942
0.4723899913718723,1.100086281276963
0.4745470232959448,1.1928386540120794
0.4767040552200172,1.177739430543572
0.4788610871440897,1.1561691113028474
0.4810181190681622,1.1130284728213975
0.4831751509922347,1.0332182916307162
0.4853321829163072,1.005176876617774
0.4874892148403796,0.9469370146678172
0.4896462467644521,0.9210526315789472
0.4918032786885246,0.9728213977566867
0.4939603106125971,0.9857635893011216
0.4961173425366695,0.9663503019844694
0.498274374460742,0.9426229508196722
0.5004314063848145,0.8930112165660052
0.502588438308887,0.8843830888697153
0.5047454702329595,0.8822260569456428
0.5069025021570319,0.8973252804141502
0.5090595340811044,0.8735979292493529
0.5112165660051768,0.864969801553063
0.5133735979292494,0.8865401207937877
0.5155306298533219,0.8563416738567731
0.5176876617773943,0.9124245038826576
0.5198446937014668,0.9383088869715271
0.5220017256255393,0.9922346850733392
0.5241587575496117,1.078515962036238
0.5263157894736842,1.119499568593615
0.5284728213977566,1.1173425366695426
0.5306298533218292,1.0698878343399485
0.5327868852459017,1.059102674719586
0.5349439171699741,0.9900776531492668
0.5371009490940466,1.0073339085418465
0.5392579810181191,0.9943917169974116
0.5414150129421915,1.0116479723899914
0.543572044866264,1.082830025884383
0.5457290767903366,1.2036238136324418
0.547886108714409,1.1885245901639343
0.5500431406384815,1.207937877480587
0.5522001725625539,1.1842105263157896
0.5543572044866264,1.2057808455565142
0.5565142364106989,1.223037100949094
0.5586712683347713,1.207937877480587
0.5608283002588439,1.1842105263157896
0.5629853321829164,1.1108714408973253
0.5651423641069888,1.1302847282139776
0.5672993960310613,1.1669542709232097
0.5694564279551337,1.1518550474547025
0.5716134598792062,1.1712683347713546
0.5737704918032787,1.186367558239862
0.5759275237273512,1.2510785159620363
0.5780845556514237,1.2553925798101813
0.5802415875754962,1.272648835202761
0.5823986194995686,1.285591026747196
0.5845556514236411,1.276962899050906
0.5867126833477135,1.3330457290767903
0.588869715271786,1.3438308886971528
0.5910267471958585,1.309318377911993
0.593183779119931,1.2704918032786885
0.5953408110440035,1.272648835202761
0.597497842968076,1.223037100949094
0.5996548748921484,1.214408973252804
0.6018119068162209,1.1453839516824849
0.6039689387402933,1.1065573770491803
0.6061259706643658,1.0483175150992234
0.6082830025884384,0.9987057808455564
0.6104400345125108,1.0073339085418465
0.6125970664365833,1.035375323554789
0.6147540983606558,1.0677308024158758
0.6169111302847282,1.136755823986195
0.6190681622088007,1.1389128559102677
0.6212251941328731,1.2187230371009492
0.6233822260569457,1.214408973252804
0.6255392579810182,1.2338222605694564
0.6276962899050906,1.182053494391717
0.6298533218291631,1.190681622088007
0.6320103537532356,1.223037100949094
0.634167385677308,1.2575496117342535
0.6363244176013805,1.3287316652286454
0.6384814495254529,1.3244176013805005
0.6406384814495255,1.2704918032786885
0.642795513373598,1.3416738567730804
0.6449525452976704,1.412855910267472
0.6471095772217429,1.4193270060396894
0.6492666091458154,1.4301121656600515
0.6514236410698878,1.4150129421915445
0.6535806729939603,1.4150129421915445
0.6557377049180328,1.412855910267472
0.6578947368421053,1.4020707506471095
0.6600517687661778,1.3352027610008628
0.6622088006902502,1.2791199309749786
0.6643658326143227,1.2100949094046591
0.6665228645383952,1.1604831751509923
0.6686798964624676,1.2057808455565142
0.6708369283865402,1.2575496117342535
0.6729939603106126,1.2618636755823986
0.6751509922346851,1.227351164797239
0.6773080241587576,1.186367558239862
0.67946505608283,1.182053494391717
0.6816220880069025,1.1712683347713546
0.683779119930975,1.2251941328731666
0.6859361518550474,1.177739430543572
0.68809318377912,1.1518550474547025
0.6902502157031924,1.136755823986195
0.6924072476272649,1.182053494391717
0.6945642795513374,1.276962899050906
0.6967213114754098,1.3718723037100948
0.6988783433994823,1.458153580672994
0.7010353753235548,1.4861949956859362
0.7031924072476273,1.4969801553062985
0.7053494391716998,1.4559965487489217
0.7075064710957722,1.4193270060396894
0.7096635030198447,1.3503019844693702
0.7118205349439172,1.3416738567730804
0.7139775668679896,1.2597066436583262
0.7161345987920621,1.2295081967213115
0.7182916307161347,1.14106988783434
0.7204486626402071,1.095772217428818
0.7226056945642796,1.0720448662640207
0.724762726488352,1.078515962036238
0.7269197584124245,1.0849870578084555
0.729076790336497,1.0332182916307162
0.7312338222605694,1.0763589301121657
0.7333908541846419,1.119499568593615
0.7355478861087145,1.2014667817083693
0.7377049180327869,1.2187230371009492
0.7398619499568594,1.2295081967213115
0.7420189818809318,1.2381363244176014
0.7441760138050043,1.2446074201898187
0.7463330457290768,1.235979292493529
0.7484900776531492,1.2942191544434858
0.7506471095772218,1.272648835202761
0.7528041415012943,1.3244176013805005
0.7549611734253667,1.3718723037100948
0.7571182053494392,1.3006902502157032
0.7592752372735116,1.3416738567730804
0.7614322691975841,1.2424503882657465
0.7635893011216566,1.2036238136324418
0.7657463330457291,1.2834339948231237
0.7679033649698016,1.3136324417601382
0.7700603968938741,1.3330457290767903
0.7722174288179465,1.2942191544434858
0.774374460742019,1.2187230371009492
0.7765314926660914,1.154012079378775
0.7786885245901639,1.0677308024158758
0.7808455565142364,1.0138050043140638
0.7830025884383089,0.9706643658326144
0.7851596203623814,0.90595340811044
0.7873166522864539,0.9620362381363244
0.7894736842105263,0.9900776531492668
0.7916307161345988,0.9922346850733392
0.7937877480586712,0.9987057808455564
0.7959447799827437,0.9900776531492668
0.7981018119068163,1.024590163934426
0.8002588438308887,0.9318377911993098
0.8024158757549612,0.9728213977566867
0.8045729076790337,1.0159620362381363
0.8067299396031061,1.046160483175151
0.8088869715271786,1.0742018981880932
0.811044003451251,1.0742018981880932
0.8132010353753236,1.104400345125108
0.8153580672993961,1.0893011216566006
0.8175150992234685,1.091458153580673
0.819672131147541,1.1065573770491803
0.8218291630716135,1.078515962036238
0.8239861949956859,1.078515962036238
0.8261432269197584,1.0332182916307162
0.8283002588438308,1.0289042277825713
0.8304572907679034,1.050474547023296
0.8326143226919759,1.0936151855047456
0.8347713546160483,1.1302847282139776
0.8369283865401208,1.1561691113028474
0.8390854184641933,1.182053494391717
0.8412424503882657,1.1583261432269198
0.8433994823123382,1.2553925798101813
0.8455565142364108,1.2402933563416738
0.8477135461604832,1.2553925798101813
0.8498705780845557,1.2510785159620363
0.8520276100086281,1.223037100949094
0.8541846419327006,1.186367558239862
0.8563416738567731,1.1712683347713546
0.8584987057808455,1.1259706643658327
0.8606557377049181,1.0936151855047456
0.8628127696289906,1.1302847282139776
0.864969801553063,1.1259706643658327
0.8671268334771355,1.1259706643658327
0.869283865401208,1.104400345125108
0.8714408973252804,1.082830025884383
0.8735979292493529,1.0849870578084555
0.8757549611734254,1.1065573770491803
0.8779119930974979,1.1259706643658327
0.8800690250215704,1.1604831751509923
0.8822260569456428,1.1798964624676445
0.8843830888697153,1.1885245901639343
0.8865401207937877,1.194995685936152
0.8886971527178602,1.1691113028472822
0.8908541846419327,1.1345987920621226
0.8930112165660052,1.1755823986194995
0.8951682484900777,1.1453839516824849
0.8973252804141502,1.1345987920621226
0.8994823123382226,1.1302847282139776
0.9016393442622952,1.194995685936152
0.9037963761863675,1.2704918032786885
0.90595340811044,1.248921484037964
0.9081104400345126,1.2208800690250217
0.910267471958585,1.190681622088007
0.9124245038826576,1.1065573770491803
0.91458153580673,1.035375323554789
0.9167385677308024,1.0763589301121657
0.9188955996548748,1.0526315789473684
0.9210526315789472,1.0483175150992234
0.92320966350302,1.0267471958584988
0.9253666954270924,1.0742018981880932
0.9275237273511648,1.1087144089732528
0.9296807592752372,1.0720448662640207
0.9318377911993098,1.0375323554788611
0.9339948231233822,1.1173425366695426
0.9361518550474548,1.1496980155306298
0.9383088869715271,1.1971527178602244
0.9404659188955996,1.2014667817083693
0.9426229508196722,1.2165660051768767
0.9447799827437446,1.2187230371009492
0.9469370146678172,1.235979292493529
0.9490940465918896,1.2877480586712684
0.951251078515962,1.3352027610008628
0.9534081104400344,1.37618636755824
0.9555651423641072,1.4020707506471095
0.9577221742881796,1.4257981018119068
0.959879206212252,1.4301121656600515
0.9620362381363244,1.449525452976704
0.9641932700603968,1.4818809318377912
0.9663503019844694,1.5163934426229508
0.9685073339085418,1.525021570319241
0.9706643658326144,1.5207075064710958
0.9728213977566867,1.4624676445211389
0.9749784296807592,1.453839516824849
0.9771354616048318,1.4797238999137188
0.9792924935289042,1.5336496980155307
0.9814495254529768,1.566005176876618
0.9836065573770492,1.589732528041415
0.9857635893011216,1.6156169111302847
0.9879206212251942,1.6652286453839518
0.9900776531492668,1.6911130284728215
0.9922346850733392,1.716997411561691
0.9943917169974116,1.688955996548749
0.996548748921484,1.6652286453839518
0.9987057808455564,1.7105263157894737
1.000862812769629,1.7277825711820536
1.0030198446937015,1.7062122519413288
1.005176876617774,1.6544434857635892
1.0073339085418465,1.6544434857635892
1.009490940465919,1.6307161345987922
1.0116479723899914,1.589732528041415
1.0138050043140638,1.544434857635893
1.0159620362381363,1.4775668679896463
1.0181190681622088,1.4667817083692838
1.0202761000862812,1.3438308886971528
1.0224331320103537,1.3157894736842106
1.024590163934426,1.395599654874892
1.0267471958584988,1.4236410698878343
1.0289042277825713,1.5207075064710958
1.0310612597066438,1.5056082830025883
1.0332182916307162,1.5012942191544436
1.035375323554789,1.4969801553062985
1.0375323554788611,1.4969801553062985
1.0396893874029336,1.4689387402933565
1.041846419327006,1.503451251078516
1.0440034512510783,1.5681622088006903
1.046160483175151,1.5595340811044005
1.0483175150992234,1.58541846419327
1.050474547023296,1.5767903364969802
1.0526315789473684,1.5314926660914585
1.0547886108714408,1.5142364106988784
1.0569456427955133,1.5163934426229508
1.059102674719586,1.548748921484038
1.0612597066436584,1.5228645383951682
1.063416738567731,1.548748921484038
1.0655737704918034,1.5595340811044005
1.0677308024158758,1.5638481449525454
1.0698878343399485,1.6005176876617777
1.0720448662640207,1.6415012942191545
1.0742018981880932,1.6458153580672994
1.0763589301121657,1.6716997411561692
1.078515962036238,1.716997411561691
1.0806729939603106,1.7450388265746333
1.082830025884383,1.7687661777394306
1.0849870578084555,1.7644521138912856
1.087144089732528,1.7687661777394306
1.0893011216566006,1.7407247627264884
1.091458153580673,1.6501294219154443
1.0936151855047456,1.6501294219154443
1.095772217428818,1.5962036238136326
1.0979292493528905,1.59404659188956
1.100086281276963,1.5832614322691976
1.1022433132010354,1.5681622088006903
1.104400345125108,1.5271786022433131
1.1065573770491803,1.540120793787748
1.1087144089732528,1.4969801553062985
1.1108714408973253,1.553062985332183
1.1130284728213975,1.5228645383951682
1.1151855047454702,1.525021570319241
1.1173425366695426,1.4559965487489217
1.119499568593615,1.3826574633304574
1.1216566005176878,1.35893011216566
1.1238136324417602,1.3308886971527178
1.1259706643658327,1.2791199309749786
1.1281276962899052,1.2791199309749786
1.1302847282139776,1.2338222605694564
1.13244176013805,1.272648835202761
1.1345987920621226,1.2575496117342535
1.136755823986195,1.268334771354616
1.1389128559102677,1.2165660051768767
1.14106988783434,1.190681622088007
1.1432269197584124,1.1798964624676445
1.1453839516824849,1.1604831751509923
